t_s,dtw_relaxed,dtw_close,dtw_open
0.514,406.16,2933.17,772.95
0.557,422.73,2929.10,770.46
0.589,422.52,2939.89,780.54
0.640,446.31,2918.16,776.47
0.685,440.82,2930.80,782.22
0.736,457.67,2909.76,763.84
0.780,456.66,2905.85,759.19
0.825,461.23,2883.49,743.68
0.875,469.85,2857.88,730.60
0.918,467.72,2850.35,719.84
0.967,481.41,2843.03,716.97
1.011,397.17,2798.07,714.65
1.061,498.87,2797.87,715.79
1.102,492.59,2811.36,718.00
1.149,511.33,2806.22,717.88
1.199,504.05,2801.22,717.81
1.243,517.30,2799.84,716.27
1.293,513.82,2792.32,708.06
1.336,514.58,2779.24,695.67
1.387,526.10,2775.54,694.35
1.432,503.61,2743.63,685.46
1.478,533.86,2738.60,687.82
1.522,523.68,2708.07,662.72
1.571,551.49,2724.82,654.84
1.619,537.10,2739.01,643.31
1.664,551.55,2771.83,657.07
1.715,541.50,2786.31,683.04
1.758,550.73,2816.12,727.27
1.805,549.16,2822.73,737.53
1.852,547.63,2826.85,739.71
1.897,555.39,2825.23,738.12
1.944,532.33,2775.78,732.65
1.990,557.57,2733.95,616.88
2.041,493.97,3060.51,905.70
2.084,567.56,3057.75,889.51
2.130,551.43,3057.18,872.75
2.179,570.38,3053.34,851.10
2.226,562.06,3082.75,833.08
2.274,561.38,3082.94,810.42
2.320,564.11,3065.81,799.55
2.369,556.55,3063.18,785.93
2.413,568.76,3068.39,777.27
2.460,550.85,3068.17,763.96
2.507,569.43,3065.58,753.44
2.552,535.50,3071.53,750.21
2.600,566.44,3051.72,732.29
2.646,553.39,3033.88,715.26
2.696,572.19,3022.71,706.65
2.739,564.15,3015.96,704.64
2.786,564.70,3008.69,700.28
2.833,569.54,3003.38,696.29
2.879,558.29,2998.97,695.67
2.930,575.70,2993.31,693.55
2.974,564.68,2988.23,688.63
3.024,584.35,2980.98,680.21
3.067,569.23,2974.29,675.33
3.118,586.59,2969.04,667.53
3.164,573.41,2958.86,662.13
3.208,598.41,2954.27,657.81
3.256,584.80,2952.44,654.83
3.302,598.38,2951.28,650.01
3.352,593.32,2951.19,653.42
3.395,596.98,2948.52,656.28
3.441,607.18,2967.21,668.87
3.488,596.94,2974.92,674.04
3.534,616.16,2975.93,671.45
3.584,601.25,2980.07,673.82
3.629,619.63,2987.64,675.81
3.680,600.66,2990.54,678.57
3.723,630.85,2992.49,684.91
3.771,604.66,2997.86,686.95
3.817,643.53,2997.50,683.65
3.862,646.61,3000.61,683.87
3.910,651.16,3003.96,688.08
3.955,664.65,3011.02,689.82
4.005,677.45,3019.57,688.55
4.048,700.13,3011.00,676.82
4.115,678.37,2997.73,672.98
4.149,684.79,2980.17,658.95
4.203,664.32,2963.94,646.59
4.251,669.95,2951.43,638.68
4.295,658.10,2949.46,642.18
4.344,652.98,2943.56,641.58
4.389,645.93,2940.13,643.60
4.440,634.31,2922.73,619.84
4.483,632.59,2912.24,610.78
4.529,612.93,2888.85,588.41
4.578,620.34,2882.11,586.11
4.624,596.66,2870.43,579.32
4.672,601.42,2863.66,580.48
4.718,578.04,2857.31,583.22
4.766,578.40,2846.08,573.25
4.810,537.69,2836.30,565.48
4.856,514.08,2824.77,564.42
4.904,479.85,2817.38,564.97
4.949,493.37,2809.20,559.81
4.997,476.97,2805.33,558.89
5.041,476.26,2800.72,555.53
5.094,463.17,2800.67,557.23
5.137,434.30,2803.72,559.23
5.184,450.03,2804.28,566.10
5.232,423.56,2803.86,570.10
5.276,424.74,2803.33,570.83
5.325,415.50,2802.02,572.63
5.372,408.86,2804.49,575.79
5.466,396.09,2817.56,592.26
5.512,397.54,2812.32,593.94
5.560,385.95,2840.95,604.23
5.604,394.35,2831.01,610.64
5.652,367.38,2854.93,616.05
5.698,384.40,2857.04,628.85
5.748,361.02,2895.71,669.49
5.791,373.46,2908.99,687.73
5.840,360.25,2931.06,705.10
5.877,360.07,2956.24,695.75
5.934,358.95,2950.72,685.26
5.983,356.15,2945.22,673.25
6.027,358.54,2954.96,656.46
6.078,351.35,2949.89,636.24
6.113,366.70,2928.70,629.24
6.167,348.96,2935.44,612.99
6.215,372.86,2939.89,603.08
6.258,361.54,2955.97,602.52
6.308,382.36,2977.71,604.66
6.353,378.30,2963.62,605.60
6.404,391.83,2944.26,604.22
6.448,391.40,2938.31,596.49
6.493,392.26,2924.26,595.75
6.542,404.04,2924.23,613.83
6.587,402.01,2912.41,614.00
6.635,410.41,2885.19,617.02
6.681,406.24,2875.26,611.75
6.731,427.91,2873.43,635.95
6.775,412.16,2851.14,618.88
6.822,423.48,2831.43,612.31
6.871,413.46,2826.95,606.86
6.916,413.39,2808.61,584.42
6.963,411.37,2788.72,568.97
7.009,407.06,2778.42,554.85
7.058,391.14,2772.13,565.74
7.101,365.03,2782.06,585.51
7.152,378.02,2782.87,595.35
7.196,350.95,2778.54,610.56
7.242,363.42,2778.29,613.82
7.291,342.56,2775.99,627.24
7.337,344.10,2770.11,633.39
7.387,339.78,2761.15,630.69
7.430,335.23,2761.71,625.87
7.477,330.97,2758.88,621.63
7.522,325.90,2752.57,610.97
7.569,329.48,2749.14,604.55
7.619,314.31,2747.25,599.59
7.662,318.94,2747.14,595.27
7.712,311.15,2739.56,586.66
7.755,307.70,2727.54,585.34
7.801,304.72,2721.58,583.94
7.849,295.64,2720.83,579.66
7.896,297.49,2722.18,573.93
7.945,289.02,2729.37,571.56
7.990,283.61,2736.44,572.23
8.039,268.12,2743.68,570.77
8.084,260.36,2770.15,574.18
8.132,246.26,2799.12,578.14
8.173,237.83,2842.22,603.27
8.225,217.47,2889.93,655.98
8.274,211.10,2909.28,656.93
8.320,200.15,2925.24,658.18
8.370,189.08,2930.99,656.57
8.412,189.38,2937.07,653.64
8.461,171.01,2938.20,651.85
8.510,172.04,2970.34,650.46
8.555,158.84,2976.85,649.16
8.604,160.85,2991.76,648.14
8.649,152.23,2991.48,646.07
8.698,149.96,2990.20,640.82
8.741,143.96,2990.26,637.48
8.788,145.18,2989.02,638.11
8.836,144.05,2989.00,642.32
8.881,137.40,2989.37,655.87
8.929,144.27,2982.36,676.81
8.975,139.85,2972.31,709.75
9.024,147.78,2969.83,709.43
9.067,143.30,2967.82,744.48
9.115,152.09,2960.26,741.46
9.165,150.12,2956.79,736.94
9.208,154.39,2954.59,726.00
9.254,150.70,2959.05,717.54
9.298,160.44,2954.36,709.05
9.347,168.86,2953.52,701.42
9.391,172.27,2949.81,690.63
9.439,181.18,2946.32,675.18
9.488,182.25,2948.62,667.55
9.534,191.63,2948.50,663.71
9.581,190.48,2948.15,659.77
9.628,209.14,2950.14,657.05
9.677,486.48,3241.64,947.55
9.722,666.33,3630.83,1332.74
9.768,620.72,3590.86,1573.49
9.818,916.64,3376.01,1782.55
9.863,667.34,1676.73,1759.23
9.911,1070.93,1707.51,1835.90
9.955,830.32,1771.36,1914.05
10.005,1244.53,1832.37,1877.44
10.049,1083.83,1981.46,2024.36
10.096,1365.29,2090.33,2009.38
10.144,1335.35,2237.30,2126.43
10.189,1414.03,2430.66,2206.49
10.239,1568.65,2202.07,2283.16
10.282,1373.20,1688.32,2355.02
10.344,1550.13,1398.74,1954.53
10.425,1719.10,849.71,1571.48
10.454,1474.89,905.68,1595.81
10.501,1538.51,954.82,1463.41
10.550,1558.94,916.57,1392.05
10.595,1448.15,957.39,1334.76
10.642,1606.77,910.20,1305.86
10.691,1377.78,876.13,1295.32
10.737,1608.62,718.00,1284.65
10.782,1292.53,572.96,1266.69
10.830,1626.89,493.17,1244.40
10.879,1288.27,481.92,1255.28
10.922,1598.02,541.97,1320.97
10.970,1366.77,595.66,1341.85
11.018,1526.81,610.30,1338.64
11.064,1428.74,730.25,1296.76
11.111,1444.61,755.82,1290.80
11.170,1382.79,631.13,1365.92
11.220,1577.87,685.67,1407.98
11.268,1572.94,951.01,1380.10
11.316,1570.99,952.26,1503.38
11.346,1774.44,868.13,1507.08
11.407,1571.40,1230.94,1676.29
11.455,1905.43,1338.88,1830.91
11.500,1697.79,1321.12,1966.24
11.548,2099.17,1367.97,2100.92
11.594,1865.57,1538.37,2264.10
11.645,2267.58,2415.85,3907.10
11.690,2076.30,4656.55,4174.28
11.736,2398.18,4245.05,3847.91
11.781,2366.44,4024.53,3539.06
11.843,2643.57,4460.71,3582.48
11.891,2467.01,4326.09,3611.10
11.934,2655.18,4417.25,3637.68
11.984,2650.72,3947.90,3408.31
12.029,2647.26,3402.49,2734.03
12.078,2785.06,2875.86,2077.07
12.122,2596.63,2567.73,1694.74
12.168,2898.46,2196.11,1328.69
12.216,2585.28,1898.76,1042.63
12.260,2880.13,1721.35,868.35
12.309,2599.94,1620.38,778.53
12.355,2870.64,1559.75,737.13
12.404,2638.89,1517.06,711.42
12.446,2830.59,1481.37,684.19
12.494,2782.42,1459.09,679.23
12.540,2761.10,1457.07,691.76
12.585,2875.34,1466.59,729.49
12.635,2727.92,1490.49,761.28
12.682,2976.18,1532.27,802.92
12.732,2739.67,1586.96,855.28
12.774,3063.57,1646.02,906.99
12.822,2792.36,1713.09,961.67
12.870,3136.61,1793.94,1018.54
12.914,2925.50,1841.15,1065.70
12.962,3118.90,1899.05,1140.08
13.009,3072.26,1981.44,1204.30
13.060,3120.12,2070.13,1255.50
13.102,3257.23,2130.15,1272.43
13.150,3156.83,2475.11,1641.58
13.198,3427.78,2786.77,1991.85
13.245,3192.72,3134.43,2397.83
13.294,3577.49,3571.11,2940.90
13.336,3310.25,3990.02,3443.83
13.387,3693.07,4424.01,3528.41
13.430,3466.66,4862.40,3503.03
13.469,3667.65,5119.53,3463.82
13.526,3649.78,4981.94,3400.85
13.572,3777.56,4853.77,3314.71
13.621,3854.62,4671.91,3203.80
13.666,3811.23,4411.88,3084.87
13.717,4033.01,4161.32,2947.77
13.759,3720.50,3990.49,2826.62
13.806,3693.40,3816.37,2714.16
13.854,3565.73,3606.74,2596.62
13.900,3546.93,3387.81,2495.18
13.949,3575.78,3177.10,2359.53
13.994,3565.97,3004.98,2187.41
14.044,3525.71,2858.93,2041.74
14.087,3427.79,2705.98,1897.06
14.134,3373.38,2600.76,1822.43
14.182,3295.88,2537.70,1780.26
14.224,3244.84,2470.78,1682.49
14.275,3206.71,2453.87,1683.64
14.319,3175.97,2433.81,1665.88
14.369,3163.13,2503.67,1671.02
14.413,3154.12,2458.15,1558.84
14.458,3159.42,2412.94,1504.67
14.507,3151.72,2409.77,1487.19
14.550,3169.22,2407.53,1510.84
14.599,3164.73,2469.11,1603.92
14.647,3187.90,2610.42,1785.65
14.697,3180.89,2813.51,2035.69
14.739,3198.08,2885.41,2093.82
14.786,3202.40,2966.67,2190.44
14.835,3217.35,2973.18,2193.20
14.881,3266.47,2958.88,2173.35
14.928,3228.26,2925.84,2154.17
14.974,3252.62,2864.51,2099.47
15.024,3157.22,2899.67,2186.02
15.066,3189.20,2968.78,2263.33
15.114,3188.94,3147.14,2515.67
15.162,3227.00,3296.11,2547.75
15.209,3201.21,3488.15,2517.34
15.257,3195.85,3595.02,2473.71
15.306,3175.45,3725.79,2429.06
15.351,3128.84,3712.39,2368.28
15.428,3028.78,3668.89,2276.13
15.460,3014.25,3642.10,2215.54
15.502,2965.92,3603.02,2139.18
15.551,2868.46,3564.80,2064.86
15.598,2817.88,3518.92,1974.20
15.644,2699.87,3466.47,1893.13
15.692,2644.94,3413.63,1808.61
15.737,2513.75,3365.35,1738.21
15.787,2459.92,3316.26,1657.24
15.830,2342.09,3266.26,1580.83
15.878,2274.23,3221.07,1503.13
15.927,2194.96,3181.59,1421.75
15.972,2115.58,3151.76,1348.47
16.021,2068.95,3126.22,1264.73
16.066,1997.89,3106.79,1195.52
16.116,2009.47,3096.52,1135.04
16.160,1936.57,3088.44,1076.18
16.208,1979.51,3081.28,1019.98
16.256,1912.91,3078.55,965.18
16.301,1971.14,3076.56,927.22
16.349,1979.32,3069.39,884.88
16.394,2006.17,3057.95,826.59
16.444,1989.17,3056.78,794.41
16.487,2010.50,3056.80,762.07
16.532,2004.90,3062.44,740.85
16.582,2013.38,3070.41,724.65
16.627,2015.35,3040.65,707.89
16.676,2011.37,3011.60,696.12
16.722,2018.48,2982.40,693.70
16.772,1990.85,2960.49,685.71
16.816,1990.50,2929.33,680.85
16.863,1953.09,2911.02,677.85
16.912,1950.82,2888.47,655.74
16.956,1890.36,2872.25,645.40
17.005,1907.35,2860.47,747.25
17.052,1841.98,2853.88,758.03
17.102,1857.95,2821.66,733.90
17.145,1803.24,2801.31,710.43
17.191,1787.20,2788.18,695.66
17.240,1740.98,2778.63,679.44
17.284,1683.36,2760.02,654.94
17.332,1645.98,2755.20,646.20
17.377,1572.19,2752.17,643.20
17.428,1540.62,2750.09,636.39
17.471,1466.25,2744.41,631.04
17.516,1424.87,2743.25,625.68
17.566,1342.94,2743.82,621.32
17.611,1302.76,2740.92,619.23
17.660,1235.69,2742.43,618.30
17.704,1176.44,2742.13,612.68
17.756,1124.86,2746.90,610.23
17.800,1059.32,2738.91,606.82
17.846,1017.74,2732.98,600.14
17.895,945.98,2725.09,589.77
17.941,911.76,2724.92,587.78
17.989,839.01,2722.64,605.13
18.034,775.92,2717.03,593.10
18.084,720.30,2749.56,600.14
18.127,696.35,2774.76,606.93
18.174,641.76,2783.43,622.04
18.223,602.69,2816.76,647.85
18.267,548.72,2841.89,678.25
18.315,517.97,2849.21,682.79
18.362,487.66,2851.23,691.39
18.412,454.69,2886.06,753.77
18.454,435.33,2903.68,755.19
18.519,405.39,2918.87,737.86
18.552,382.88,2936.23,741.80
18.608,351.97,2950.16,731.16
18.642,349.68,2962.86,726.18
18.702,318.14,2960.34,722.65
18.738,325.11,2973.31,713.82
18.798,297.20,2971.38,703.70
18.849,302.44,2973.53,695.21
18.891,283.62,2972.47,685.33
18.938,284.83,2968.77,679.15
18.988,268.23,2960.47,673.49
19.034,270.16,2946.99,672.51
19.082,262.65,2932.43,664.70
19.127,273.84,2924.43,655.89
19.176,263.13,2919.95,652.86
19.221,272.98,2917.89,653.78
19.267,270.50,2919.79,644.81
19.327,270.65,2927.88,651.71
19.377,270.34,2930.52,651.17
19.423,266.54,2932.97,653.02
19.467,272.18,2951.88,655.47
19.516,261.03,2955.82,655.97
19.549,267.88,2954.43,659.40
19.611,274.35,2960.40,659.51
19.654,287.57,2961.96,666.41
19.702,284.99,2956.48,670.04
19.750,318.17,2956.30,671.15
19.795,313.22,2957.08,682.44
19.844,300.21,2959.52,694.32
19.889,313.08,2969.87,708.37
19.939,312.27,2987.25,732.49
19.984,312.85,2983.85,731.02
20.031,310.96,3036.64,752.92
20.078,313.04,3038.28,753.79
20.124,309.32,3050.14,762.56
20.172,311.02,3065.11,782.55
20.218,306.56,3099.95,807.34
20.269,301.59,3097.68,808.90
20.312,293.21,3092.77,808.12
20.364,294.04,3085.63,802.38
20.442,283.26,3062.75,790.44
20.465,282.64,3078.52,799.27
20.515,268.30,3075.96,798.87
20.561,269.95,3115.13,814.70
20.597,261.58,3120.23,821.76
20.656,252.10,3116.51,816.11
20.692,248.60,3116.01,789.87
20.749,237.60,3109.11,792.70
20.791,229.86,3108.99,783.87
20.831,226.35,3110.07,788.46
20.886,206.40,3105.71,787.03
20.927,201.91,3107.95,783.36
20.980,192.35,3112.47,782.43
21.021,184.68,3102.65,784.86
21.074,172.27,3100.32,784.00
21.116,168.11,3109.12,782.57
21.167,150.31,3114.08,783.03
21.206,151.58,3109.37,784.25
21.260,144.59,3110.85,784.64
21.300,129.31,3113.38,788.99
21.349,132.92,3148.80,801.75
21.398,119.32,3149.80,805.78
21.444,118.18,3151.16,808.54
21.491,108.56,3149.28,811.51
21.537,106.46,3147.26,813.72
21.579,97.06,3150.59,821.80
21.632,99.82,3149.61,824.03
21.682,83.82,3149.68,826.43
21.720,86.44,3147.37,816.80
21.772,85.22,3147.63,834.03
21.820,73.65,3146.38,849.18
21.866,80.98,3140.99,847.06
21.914,66.19,3137.22,846.72
21.961,72.86,3136.06,844.83
22.008,68.14,3133.08,841.55
22.051,70.46,3126.31,833.51
22.099,68.38,3118.98,824.85
22.145,72.22,3117.88,824.38
22.191,75.28,3113.74,792.00
22.242,67.79,3115.09,797.85
22.289,73.82,3109.21,787.98
22.338,74.18,3104.41,784.47
22.382,82.81,3098.97,765.66
22.431,66.14,3105.17,763.34
22.475,79.06,3102.06,765.25
22.522,66.60,3103.99,763.68
22.564,74.47,3099.49,767.91
22.618,66.59,3106.94,762.74
22.660,75.53,3097.80,767.50
22.709,69.32,3098.01,768.30
22.756,78.12,3097.13,766.80
22.804,66.84,3108.95,771.38
22.850,68.12,3112.85,774.76
22.900,71.35,3131.17,772.67
22.940,54.28,3147.74,782.28
22.995,72.95,3146.84,785.14
23.034,55.58,3147.33,795.36
23.084,71.28,3147.02,803.30
23.130,52.64,3137.11,801.39
23.177,67.26,3136.61,797.09
23.226,53.08,3138.66,808.53
23.272,64.59,3141.49,818.36
23.321,56.22,3144.90,826.74
23.366,61.80,3141.58,827.83
23.411,67.27,3132.81,819.24
23.458,50.91,3126.86,815.44
23.505,76.68,3112.74,811.66
23.551,59.28,3110.24,815.33
23.599,77.78,3106.12,811.38
23.648,54.96,3102.17,812.93
23.692,71.59,3094.32,809.71
23.738,59.33,3090.20,807.49
23.785,78.13,3096.48,805.91
23.831,63.55,3094.54,801.77
23.879,74.12,3092.96,795.02
23.927,69.31,3090.21,792.60
23.976,61.09,3081.14,776.46
24.019,76.51,3066.53,773.74
24.066,62.13,3062.66,771.06
24.113,75.67,3061.64,763.12
24.159,61.03,3069.44,764.72
24.207,70.70,3073.45,763.51
24.253,60.09,3096.08,780.91
24.301,61.88,3099.57,782.26
24.362,53.23,3103.69,786.28
24.398,57.25,3102.64,786.74
24.454,53.44,3123.27,789.93
24.499,61.44,3119.03,788.72
24.546,47.82,3101.60,790.95
24.588,46.05,3080.49,782.56
24.629,60.30,3068.05,775.12
24.690,50.79,3082.03,784.42
24.752,55.90,3082.73,746.45
24.797,66.63,3027.08,727.76
24.846,77.90,2978.87,711.71
24.888,81.65,2951.30,717.88
24.935,112.75,2919.42,719.35
24.982,120.78,2875.71,732.70
25.028,159.09,2856.65,748.06
25.078,174.52,2840.57,768.01
25.122,214.64,2823.27,791.97
25.172,234.58,2822.57,831.90
25.214,270.44,2823.02,857.65
25.262,309.23,2825.75,885.62
25.310,331.99,2829.13,908.21
25.356,370.74,2797.35,926.17
25.404,387.56,2798.09,941.83
25.482,441.96,2762.39,963.28
25.514,452.06,2722.55,971.52
25.546,468.50,2709.77,964.86
25.587,489.75,2638.54,916.61
25.632,504.02,2586.17,867.25
25.681,520.41,2522.75,799.87
25.728,524.97,2461.51,743.45
25.772,541.71,2413.10,698.81
25.822,538.83,2352.06,638.48
25.866,534.10,2287.37,573.21
25.913,541.61,2264.56,548.94
25.960,472.28,2256.50,535.00
26.009,491.99,2257.91,540.04
26.054,474.09,2253.86,535.28
26.101,491.97,2244.62,535.16
26.151,487.98,2242.39,546.49
26.195,513.32,2250.58,562.11
26.241,517.35,2262.67,582.35
26.288,537.53,2280.79,611.66
26.337,547.83,2302.69,638.66
26.384,563.83,2322.56,665.60
26.430,598.90,2348.83,698.13
26.478,598.36,2367.87,724.43
26.521,634.76,2399.91,754.03
26.567,635.25,2437.67,787.74
26.615,678.10,2477.08,826.20
26.664,691.02,2513.64,859.94
26.709,723.44,2552.85,873.10
26.754,746.88,2603.41,890.48
26.802,770.78,2710.67,921.86
26.847,788.17,2800.03,986.49
26.893,812.35,2954.72,1156.95
26.940,844.12,3077.73,1292.72
26.988,854.26,3224.15,1389.09
27.034,891.66,3357.10,1375.29
27.095,910.36,3463.74,1347.98
27.142,949.83,3422.16,1314.57
27.188,956.29,3375.67,1273.84
27.238,992.10,3296.41,1198.33
27.281,994.60,3200.66,1105.05
27.328,1012.65,3104.99,1015.39
27.376,1029.78,3041.10,955.74
27.424,1042.76,2944.09,860.44
27.461,1052.53,2900.34,822.86
27.515,1067.26,2823.89,758.26
27.564,1072.59,2724.92,672.08
27.609,1080.39,2662.98,624.43
27.654,1099.52,2610.95,587.82
27.701,1091.72,2555.03,543.49
27.749,1101.89,2508.62,509.93
27.796,1101.00,2470.77,474.57
27.840,1104.52,2446.73,452.69
27.891,1112.33,2426.43,479.46
27.934,1109.39,2418.83,531.92
27.982,1115.55,2414.57,515.14
28.028,1062.96,2401.04,499.92
28.078,1074.29,2398.88,491.22
28.124,1043.68,2440.96,503.13
28.168,1051.56,2523.89,604.30
28.218,1032.68,2595.96,732.43
28.261,1042.13,2666.80,831.96
28.308,1041.25,2678.26,858.20
28.355,1041.06,2729.50,929.68
28.405,1043.44,2758.97,990.30
28.450,1045.03,2794.50,1034.82
28.497,1049.84,2821.01,1083.34
28.548,1050.60,2883.81,1171.28
28.590,1059.49,2945.04,1235.84
28.636,1050.96,2977.26,1215.82
28.683,1064.79,2975.87,1194.11
28.732,1083.65,2980.85,1172.42
28.777,1106.07,2982.37,1150.55
28.822,1097.96,2979.03,1110.60
28.872,1102.10,2975.48,1070.88
28.916,1097.32,2966.00,1044.90
28.962,1086.88,2965.03,1004.84
29.011,1077.40,2999.36,961.42
29.058,1058.10,3036.48,916.41
29.105,1045.54,3029.73,882.54
29.149,1008.04,3021.54,851.56
29.199,1002.14,3004.43,811.35
29.243,955.26,2995.32,774.07
29.289,958.60,2985.36,743.30
29.334,923.33,2977.38,724.72
29.384,891.05,2972.31,705.30
29.430,869.78,2972.30,691.82
29.477,837.59,2970.03,681.85
29.524,827.43,2970.17,660.15
29.568,791.55,2968.74,645.27
29.615,829.56,2779.58,678.95
29.662,907.53,2950.70,811.58
29.710,838.37,2087.98,839.86
29.756,881.59,1664.12,458.80
29.801,863.01,1736.87,500.42
29.854,927.33,1802.58,576.71
29.898,954.17,1965.84,680.75
29.944,1022.04,2085.30,782.83
29.993,1066.49,2104.41,858.72
30.039,1085.59,2155.15,925.80
30.087,1188.96,2091.11,924.71
30.132,1160.39,1920.66,862.50
30.182,1213.76,1741.71,681.31
30.226,1163.05,1682.17,612.71
30.272,1204.68,1629.75,550.75
30.319,1108.93,1615.74,535.53
30.369,1153.41,1608.53,526.14
30.416,1089.28,1627.11,547.24
30.484,1101.70,1569.50,498.62
30.514,1057.53,1637.92,547.31
30.556,1040.12,1682.96,553.92
30.602,1058.08,1616.17,502.87
30.650,986.55,1601.33,488.25
30.697,1013.93,1559.46,471.71
30.744,937.21,1553.60,472.29
30.789,966.03,1568.33,474.75
30.839,889.38,1575.26,475.06
30.881,920.66,1589.48,479.07
30.928,855.14,1599.95,494.09
30.975,858.99,1639.76,516.23
31.022,826.11,1648.61,552.13
31.069,802.14,1705.33,570.31
31.115,804.87,1655.07,546.28
31.164,716.52,1651.02,539.93
31.207,739.02,1610.50,497.67
31.255,669.38,1602.91,487.45
31.302,710.41,1610.28,511.71
31.351,664.03,1656.08,542.65
31.397,717.53,1695.08,583.25
31.443,681.73,1759.26,637.05
31.494,750.81,1867.89,735.19
31.538,747.61,1993.72,850.48
31.583,797.97,2123.64,1028.58
31.629,862.14,2562.72,1285.47
31.677,883.34,2559.98,1266.32
31.724,999.51,2575.72,1291.69
31.769,998.54,2808.98,1594.38
31.821,1132.17,3593.02,1832.37
31.861,1125.15,3592.73,1866.63
31.908,1255.90,3535.30,1888.76
31.954,1250.22,3375.10,1873.25
32.003,1355.12,3058.48,1834.07
32.051,1354.11,2801.05,1815.01
32.095,1404.16,2571.59,1630.66
32.146,1438.61,2330.35,1330.11
32.190,1439.79,2134.02,1090.14
32.237,1511.18,1992.54,907.48
32.286,1467.79,1837.55,792.25
32.333,1531.50,1706.00,662.62
32.379,1466.60,1612.96,569.10
32.424,1506.39,1604.38,549.71
32.475,1474.13,1597.60,546.29
32.519,1519.99,1606.33,556.46
32.565,1509.26,1629.17,570.49
32.611,1557.38,1654.99,593.97
32.660,1583.52,1694.16,628.25
32.706,1596.89,1736.52,672.66
32.752,1655.54,1783.35,714.12
32.802,1638.90,1837.14,766.36
32.845,1716.58,1887.15,824.30
32.892,1721.32,1933.73,879.04
32.938,1785.53,1994.20,915.40
33.000,1805.72,2117.53,970.34
33.046,1868.71,2162.69,1024.83
33.097,1887.67,2239.48,1086.34
33.144,1953.48,2319.21,1160.36
33.188,1978.02,2397.38,1196.22
33.240,2069.48,2464.96,1239.69
33.282,2072.35,2599.81,1297.27
33.330,2135.75,2874.15,1635.38
33.392,2168.31,3235.37,2040.33
33.425,2207.08,3487.67,2335.25
33.472,2290.31,3840.31,2749.33
33.517,2272.68,4139.86,2919.44
33.581,2380.71,4464.20,2880.54
33.615,2357.83,4370.01,2855.97
33.674,2466.91,4161.11,2773.53
33.719,2373.21,4009.56,2704.24
33.765,2388.58,3864.19,2615.59
33.798,2428.96,3761.86,2525.67
33.857,2452.48,3558.49,2375.04
33.906,2461.01,3385.56,2198.66
33.951,2426.66,3220.01,2012.74
34.002,2419.00,2998.46,1767.55
34.044,2374.21,2876.25,1632.52
34.091,2381.32,2748.67,1492.42
34.138,2359.26,2627.94,1352.56
34.185,2369.89,2533.93,1244.60
34.232,2362.96,2441.81,1124.74
34.276,2390.78,2361.64,1031.18
34.317,2386.64,2247.38,947.39
34.369,2401.71,2123.13,882.81
34.418,2396.98,2037.47,790.03
34.465,2331.03,2008.36,729.78
34.514,2378.11,2152.28,878.56
34.560,2359.21,2308.28,1061.91
34.605,2397.87,2395.20,1164.44
34.655,2436.74,2525.37,1318.02
34.698,2442.61,2679.24,1507.25
34.744,2532.02,2842.48,1687.39
34.790,2537.92,3006.35,1872.61
34.839,2630.33,3209.84,2119.83
34.886,2650.74,3450.89,2381.91
34.931,2756.89,3585.03,2537.85
34.982,2766.02,3759.45,2669.31
35.024,2862.65,3880.51,2770.90
35.072,2886.09,4036.97,2930.72
35.119,2947.87,4216.83,3027.40
35.169,2999.63,4397.48,3058.27
35.215,3034.44,4478.55,3061.89
35.259,3149.95,4290.02,3020.40
35.310,3156.94,4051.09,2880.62
35.352,3203.64,3771.49,2544.69
35.399,3186.02,3502.40,2189.24
35.469,3178.35,3121.49,1823.41
35.491,3151.72,3026.66,1736.86
35.538,3104.74,2846.52,1569.51
35.584,3075.07,2760.17,1488.40
35.634,3062.26,2677.01,1418.84
35.680,2985.89,2619.99,1373.18
35.725,2995.61,2574.33,1333.09
35.770,2904.13,2537.08,1305.38
35.819,2911.95,2506.55,1285.64
35.865,2846.99,2489.97,1275.15
35.911,2832.82,2473.63,1270.03
35.961,2779.70,2467.54,1274.78
36.007,2759.63,2472.73,1266.45
36.050,2740.69,2477.27,1251.87
36.095,2708.63,2483.90,1242.90
36.144,2745.40,2510.18,1233.38
36.188,2671.99,2526.63,1215.77
36.251,2727.44,2509.32,1192.29
36.297,2689.37,2529.40,1177.32
36.343,2775.41,2548.00,1178.54
36.394,2727.49,2555.12,1184.78
36.438,2800.43,2558.72,1247.47
36.469,2814.46,2595.65,1275.39
36.531,2881.95,2678.29,1320.50
36.578,2866.90,2960.17,1682.34
36.611,2897.84,3122.53,1884.97
36.671,2891.82,3439.03,2233.78
36.723,2924.61,3695.94,2156.07
36.765,2912.91,3821.69,2066.69
36.809,2900.28,3728.23,1982.36
36.856,2920.81,3634.60,1898.89
36.904,2882.70,3510.46,1777.01
36.949,2894.91,3370.68,1615.87
36.995,2844.85,3234.30,1470.52
37.045,2841.95,3036.39,1278.22
37.091,2797.77,2919.79,1156.24
37.135,2783.34,2785.90,1027.28
37.182,2735.69,2631.74,883.51
37.232,2706.31,2502.03,784.01
37.276,2665.43,2393.35,689.07
37.322,2589.71,2268.56,574.09
37.372,2520.55,2194.23,514.83
37.418,2447.87,2170.70,504.07
37.462,2409.07,2126.88,501.84
37.509,2359.21,2117.46,499.88
37.557,2300.67,2155.22,548.90
37.604,2261.71,2225.44,595.81
37.650,2195.73,2496.15,952.45
37.699,2173.07,2671.20,1196.38
37.745,2113.93,2815.83,1369.19
37.788,2097.69,2882.72,1454.30
37.836,2049.47,2977.28,1554.72
37.884,2022.45,3017.11,1543.17
37.929,1994.77,3085.66,1529.75
37.974,1951.49,3141.88,1513.10
38.026,1947.98,3146.48,1496.50
38.071,1887.26,3147.72,1474.85
38.115,1907.51,3145.40,1421.16
38.163,1836.84,3153.05,1368.49
38.209,1877.20,3152.50,1312.94
38.256,1810.43,3155.02,1260.25
38.301,1842.22,3154.58,1211.72
38.351,1798.41,3167.08,1159.63
38.397,1823.21,3180.45,1108.83
38.442,1824.36,3181.33,1071.86
38.489,1794.92,3179.91,1010.14
38.537,1845.79,3177.74,967.28
38.583,1853.26,3182.49,922.28
38.629,1852.13,3186.24,878.95
38.679,1847.47,3191.65,837.16
38.725,1833.05,3162.81,801.51
38.772,1809.22,3120.53,768.25
38.818,1783.05,3081.09,739.09
38.867,1748.16,3042.38,712.34
38.912,1709.17,3009.42,689.36
38.959,1654.08,2979.56,671.45
39.008,1627.01,2948.82,653.38
39.054,1557.76,2925.45,637.75
39.098,1528.30,2897.07,621.29
39.145,1447.68,2882.06,612.97
39.193,1419.17,2862.54,606.93
39.238,1346.67,2842.93,598.75
39.284,1333.41,2832.06,628.97
39.334,1286.90,2819.59,668.45
39.378,1273.60,2820.09,711.71
39.424,1247.81,2813.69,719.52
39.472,1218.46,2811.97,717.00
39.521,1240.52,2811.23,710.01
39.567,1210.53,2817.15,701.69
39.612,1266.32,2821.85,698.67
39.663,1273.62,2834.39,698.58
39.708,1263.68,2843.09,696.99
39.752,1260.76,2857.11,697.85
39.798,1236.29,2886.84,700.21
39.859,1210.93,2896.09,697.01
39.906,1190.61,2884.43,677.62
39.954,1152.94,2889.62,670.08
39.999,1133.78,2930.45,707.63
40.046,1093.36,2917.51,711.37
40.097,1072.85,2946.67,746.94
40.142,1024.27,2941.49,739.98
40.188,995.50,2956.08,775.86
40.234,952.62,2988.32,785.45
40.281,862.50,2974.09,768.42
40.328,827.13,2980.42,766.27
40.374,776.94,2979.55,761.19
40.426,757.39,2973.68,752.38
40.515,684.64,2972.11,739.82
40.563,644.41,2972.65,737.99
40.613,617.50,2972.77,738.37
40.657,594.34,2967.76,741.08
40.705,575.50,2961.51,731.35
40.755,540.41,2957.99,725.05
40.813,522.77,2948.69,721.91
40.864,490.42,2941.04,709.98
40.895,480.82,2937.65,696.23
40.951,454.03,2930.44,682.02
40.998,440.97,2924.50,677.92
41.046,425.07,2919.76,670.94
41.091,408.43,2922.79,668.98
41.138,405.86,2921.30,663.90
41.190,387.82,2918.48,659.07
41.234,395.73,2914.85,659.95
41.279,378.98,2921.47,658.42
41.325,388.34,2920.55,657.15
41.375,373.82,2933.07,654.52
41.419,382.48,2941.06,655.98
41.465,379.35,2940.94,654.93
41.515,377.60,2939.80,652.20
41.560,372.47,2935.86,644.19
41.604,359.33,2951.43,646.66
41.650,372.50,2953.79,642.99
41.697,384.59,2959.75,642.42
41.743,421.55,2959.98,641.99
41.790,421.84,2961.66,637.44
41.840,419.83,2958.99,635.45
41.885,421.33,2943.96,630.07
41.930,424.94,2922.86,639.71
41.977,428.11,2918.77,627.48
42.026,440.08,2900.77,623.49
42.071,446.91,2866.01,631.00
42.118,458.19,2824.39,661.51
42.166,481.96,2799.92,694.82
42.211,489.44,2792.37,727.62
42.257,523.73,2788.27,779.94
42.305,539.84,2794.69,819.58
42.354,571.95,2786.83,851.41
42.398,596.88,2794.59,887.81
42.447,624.82,2790.82,913.55
42.495,646.81,2793.20,944.89
42.540,679.09,2794.17,975.33
42.586,695.30,2790.02,995.38
42.635,719.27,2743.93,1013.82
42.680,738.90,2713.77,1026.61
42.725,758.21,2653.22,1031.93
42.772,766.79,2567.69,960.57
42.824,775.48,2449.77,810.34
42.869,774.73,2352.78,705.00
42.913,772.71,2275.87,631.76
42.960,767.26,2201.28,556.53
43.009,762.81,2163.50,519.45
43.053,734.78,2119.48,481.52
43.100,714.77,2124.91,492.84
43.149,716.27,2116.03,484.11
43.194,708.98,2112.80,491.97
43.240,702.45,2118.44,498.14
43.287,705.21,2133.06,512.31
43.336,710.74,2152.71,532.10
43.381,718.42,2178.74,567.56
43.429,727.71,2204.52,603.67
43.478,741.23,2236.17,652.67
43.525,757.84,2256.06,699.55
43.568,766.33,2293.06,740.12
43.615,792.61,2327.22,784.97
43.666,805.63,2364.72,825.30
43.707,824.53,2413.06,865.58
43.754,837.12,2460.88,885.01
43.803,863.47,2507.31,901.09
43.849,867.49,2546.99,910.74
43.893,892.93,2596.56,926.02
43.941,910.52,2671.83,937.69
43.990,932.79,2812.16,1027.76
44.037,956.86,2955.61,1182.24
44.082,972.87,3087.84,1338.52
44.132,1000.24,3261.96,1535.45
44.177,1015.27,3377.57,1534.52
44.223,1037.44,3492.50,1486.34
44.270,1040.20,3412.93,1386.23
44.319,1072.35,3348.36,1327.88
44.364,1070.56,3247.54,1223.50
44.410,1096.79,3180.89,1163.60
44.460,1100.08,3097.46,1085.23
44.505,1122.56,2984.68,981.87
44.551,1124.97,2872.93,877.34
44.598,1137.72,2749.18,767.03
44.646,1136.54,2630.42,655.54
44.691,1098.04,2567.87,603.74
44.738,1088.44,2511.37,555.87
44.788,1078.95,2471.89,524.94
44.833,1090.20,2422.56,483.13
44.876,1082.15,2382.82,445.31
44.924,1101.15,2351.31,430.85
44.972,1092.57,2334.38,427.89
45.017,1103.19,2330.35,476.13
45.065,1106.67,2323.33,524.92
45.115,1107.14,2323.56,520.06
45.159,1108.43,2331.00,515.96
45.205,1104.72,2413.00,545.24
45.251,1085.76,2479.27,646.48
45.299,1076.60,2549.07,740.45
45.345,1091.93,2627.34,857.30
45.391,1066.22,2688.62,950.29
45.478,1060.42,2806.62,1122.10
45.501,1072.24,2823.34,1137.23
45.532,1083.78,2871.77,1214.66
45.595,1063.36,2934.14,1243.37
45.640,1088.03,2967.73,1200.72
45.691,1066.68,3012.89,1161.95
45.751,1100.33,3030.69,1122.46
45.800,1080.77,3039.21,1084.67
45.846,1107.26,3046.62,1045.15
45.891,1124.93,3045.37,1006.54
45.936,1157.89,3036.92,968.58
45.985,1144.73,3028.92,929.01
46.021,1153.17,3052.15,913.02
46.065,1151.41,3043.35,881.12
46.128,1140.51,3036.71,834.60
46.173,1134.41,3030.04,805.39
46.218,1120.90,3022.02,775.34
46.265,1102.71,3015.48,754.14
46.312,1080.82,3013.28,734.41
46.360,1060.51,3008.83,713.36
46.406,1030.98,3010.61,678.21
46.456,999.98,3000.84,658.96
46.501,964.52,2965.66,622.36
46.546,941.76,2934.56,590.95
46.593,903.48,2907.79,566.85
46.639,873.26,2887.36,568.52
46.692,811.02,2885.38,572.79
46.723,791.48,2885.05,574.47
46.785,747.59,2875.90,558.87
46.828,734.66,2872.56,553.19
46.873,715.23,2869.56,551.43
46.919,698.81,2863.69,554.52
46.966,701.84,2856.28,552.17
47.014,681.04,2853.68,556.14
47.060,694.31,2848.78,566.26
47.111,690.03,2847.87,582.39
47.155,753.05,2848.99,639.36
47.201,752.14,2854.94,635.43
47.235,749.68,2868.39,633.59
47.296,756.28,2863.41,625.88
47.346,752.50,2861.75,610.97
47.390,747.58,2868.75,610.95
47.441,726.49,2865.89,589.99
47.485,725.19,2860.37,571.14
47.531,691.90,2851.47,555.58
47.578,693.68,2854.45,547.36
47.625,652.70,2855.95,542.25
47.674,608.07,2871.55,544.65
47.718,588.12,2881.18,542.40
47.769,547.11,2900.58,545.25
47.814,535.70,2901.04,545.12
47.859,490.89,2899.85,539.88
47.907,487.09,2901.76,544.36
47.953,445.04,2897.79,544.09
47.989,433.79,2892.34,544.79
48.047,395.94,2888.59,547.98
48.097,368.34,2891.71,548.90
48.142,345.65,2896.60,544.12
48.177,319.66,2894.89,546.93
48.233,299.14,2894.62,552.20
48.268,275.04,2885.55,549.18
48.326,250.69,2878.83,558.18
48.362,238.48,2875.11,555.60
48.422,215.97,2864.77,555.35
48.458,199.57,2853.67,564.13
48.513,184.94,2848.32,576.90
48.551,168.19,2840.91,585.23
48.605,149.08,2838.20,635.51
48.644,151.62,2848.68,649.57
48.699,136.47,2839.63,644.30
48.741,137.74,2850.82,645.09
48.794,131.72,2853.98,644.49
48.840,136.62,2863.69,645.06
48.887,130.45,2862.24,645.97
48.924,132.58,2875.32,646.64
48.981,129.28,2896.26,648.47
49.017,126.78,2895.15,652.56
49.078,126.63,2931.85,661.22
49.114,122.68,2936.76,653.55
49.167,121.26,2935.94,654.93
49.204,116.39,2947.59,663.57
49.260,129.74,2946.65,658.79
49.309,126.83,2946.18,658.49
49.355,142.99,2948.44,666.19
49.400,128.16,2948.82,675.62
49.453,135.70,2971.97,702.42
49.494,127.34,2981.72,709.72
49.541,132.10,2982.37,705.13
49.586,130.21,2989.54,703.08
49.636,162.36,3086.94,753.35
49.681,167.67,3090.27,770.81
49.730,172.07,3076.56,763.93
49.775,167.29,3097.55,769.47
49.821,164.80,3089.99,765.52
49.867,163.94,3088.54,763.33
49.914,152.98,3088.11,763.60
49.962,153.54,3086.73,762.31
50.008,143.47,3086.88,764.75
50.058,146.89,3084.56,765.15
50.102,127.31,3074.74,762.54
50.148,139.26,3073.29,764.99
50.195,127.62,3070.54,765.05
50.242,134.53,3060.55,764.52
50.290,120.36,3066.71,760.24
50.335,119.86,3069.66,762.27
50.386,112.12,3068.77,761.36
50.429,104.25,3066.85,765.90
50.585,96.22,3062.30,770.67
50.626,79.55,3061.51,768.62
50.678,88.73,3064.95,784.03
50.725,77.12,3066.83,784.17
50.768,103.22,3049.15,781.33
50.818,93.24,3047.48,779.86
50.865,101.31,3040.44,776.28
50.911,98.16,3033.74,769.23
50.962,95.67,3029.60,766.38
51.005,94.63,3019.00,764.76
51.051,92.14,3011.99,759.27
51.099,92.62,3032.97,751.73
51.146,82.05,3027.51,761.59
51.195,82.39,3029.67,763.94
51.239,69.77,3031.17,756.79
51.290,80.90,3037.05,754.80
51.333,57.49,3051.02,769.51
51.381,63.92,3115.93,791.31
51.429,52.61,3116.07,793.35
51.475,54.70,3114.60,790.97
51.524,50.02,3112.27,790.49
51.570,50.54,3103.07,793.98
51.620,51.59,3099.33,793.19
51.664,44.43,3104.45,784.26
51.705,43.52,3120.77,802.23
51.758,42.14,3123.90,797.29
51.804,41.49,3119.33,805.48
51.853,36.07,3115.41,806.95
51.894,38.89,3120.37,806.17
51.946,33.47,3116.93,808.65
51.986,38.60,3126.74,811.81
52.037,33.35,3126.20,812.97
52.223,39.87,3105.55,811.14
