0..4039 clip=  6/  55 bias=1228 env= 574
raw=   0..4051 clip=  2/  55 bias=1225 env= 578
raw=   1..4045 clip= BEGIN n=1000 fs=1000
1809
1812
1823
1834
1857
1875
1892
1905
1922
1922
1919
1905
1890
1870
1852
1840
1830
1822
1815
1803
1811
1812
1821
1833
1854
1870
1895
1909
1921
1923
1921
1907
1894
1875
1856
1842
1832
1822
1818
1811
1809
1812
1822
1834
1853
1869
1893
1909
1921
1926
1925
1912
1895
1879
1858
1847
1836
1821
1816
1811
1809
1813
1819
1833
1848
1868
1894
1906
1917
1919
1919
1908
1895
1877
1859
1843
1832
1825
1816
1810
1806
1813
1818
1829
1845
1867
1889
1904
1917
1926
1919
1911
1903
1873
1861
1846
1831
1822
1820
1812
1808
1808
1816
1830
1844
1867
1887
1902
1916
1922
1922
1910
1900
1880
1861
1848
1834
1826
1817
1811
1807
1811
1816
1826
1838
1862
1881
1899
1913
1919
1919
1915
1898
1880
1859
1843
1832
1821
1816
1810
1807
1807
1814
1825
1843
1863
1882
1897
1906
1919
1922
1916
1900
1878
1863
1846
1835
1824
1816
1811
1806
1804
1812
1823
1837
1858
1880
1897
1912
1918
1919
1915
1902
1885
1862
1848
1835
1825
1817
1809
1804
1807
1812
1822
1835
1855
1880
1891
1908
1921
1919
1914
1902
1885
1862
1849
1836
1827
1818
1810
1808
1807
1809
1821
1836
1858
1877
1896
1909
1919
1919
1916
1902
1885
1868
1850
1836
1827
1816
1811
1808
1806
1813
1817
1832
1850
1871
1893
1908
1916
1919
1914
1902
1886
1868
1851
1837
1828
1816
1812
1808
1808
1812
1820
1833
1851
1870
1893
1906
1917
1921
1917
1906
1887
1871
1853
1839
1829
1819
1814
1809
1803
1813
1820
1833
1849
1871
1891
1907
1916
1922
1916
1919
1889
1873
1855
1841
1829
1819
1813
1810
1805
1810
1817
1830
1848
1871
1889
1904
1916
1919
1917
1905
1890
1873
1852
1838
1829
1819
1810
1808
1803
1807
1815
1825
1841
1863
1887
1903
1917
1923
1919
1909
1896
1874
1858
1843
1830
1823
1814
1806
1806
1807
1815
1826
1844
1864
1884
1902
1915
1919
1918
1908
1893
1876
1857
1843
1834
1824
1814
1813
1807
1808
1815
1827
1840
1862
1882
1900
1915
1921
1919
1908
1897
1879
1858
1845
1830
1823
1816
1814
1807
1808
1815
1827
1841
1861
1882
1900
1912
1919
1919
1909
1898
1878
1858
1841
1830
1822
1816
1811
1805
1805
1814
1822
1839
1855
1877
1894
1910
1919
1919
1907
1899
1881
1861
1847
1834
1824
1814
1808
1804
1807
1813
1823
1837
1857
1874
1890
1910
1919
1919
1915
1899
1885
1861
1849
1837
1823
1818
1811
1807
1806
1812
1823
1841
1856
1876
1896
1909
1919
1924
1913
1901
1883
1865
1850
1837
1822
1817
1810
1805
1805
1808
1818
1832
1854
1875
1893
1905
1919
1918
1913
1902
1884
1867
1849
1837
1826
1819
1810
1807
1807
1812
1820
1832
1855
1874
1896
1907
1921
1919
1918
1911
1885
1867
1852
1838
1828
1819
1813
1806
1804
1808
1820
1833
1850
1872
1892
1910
1919
1918
1917
1906
1889
1872
1855
1840
1825
1820
1811
1807
1806
1789
1816
1830
1850
1867
1889
1907
1917
1919
1918
1906
1891
1873
1853
1840
1826
1820
1813
1808
1806
1809
1817
1829
1848
1869
1890
1903
1916
1923
1917
1907
1892
1876
1854
1839
1830
1820
1815
1807
1801
1810
1817
1828
1843
1865
1887
1903
1919
1921
1916
1908
1892
1875
1857
1846
1828
1818
1813
1805
1804
1804
1811
1826
1843
1863
1886
1900
1912
1921
1919
1909
1892
1876
1855
1841
1833
1820
1813
1808
1803
1805
1813
1831
1842
1861
1883
1902
1915
1919
1918
1910
1900
1879
1858
1842
1831
1820
1813
1807
1805
1807
1813
1823
1838
1860
1876
1900
1912
1921
1919
1910
1895
1875
1858
1838
1830
1823
1810
1803
1803
1807
1810
1820
1835
1855
1876
1895
1909
1937
1919
1909
1893
1877
1857
1843
1829
1826
1815
1810
1802
1805
1812
1820
1835
1858
1877
1898
1910
1918
1919
1914
1896
1876
1861
1845
1831
1825
1814
1808
1806
1805
1813
1821
1836
1860
1877
1895
1908
1918
1921
1912
1898
1884
1863
1848
1834
1823
1813
1810
1806
1809
1810
1819
1833
1854
1873
1898
1905
1919
1923
1910
1901
1881
1863
1846
1832
1823
1815
1809
1805
1802
1811
1818
1829
1864
1872
1892
1907
1916
1919
1911
1898
1884
1866
1849
1835
1823
1817
1812
1806
1803
1812
1819
1833
1851
1873
1894
1907
1915
1922
1915
1903
1885
1869
1853
1836
1843
1817
1809
1805
1806
1809
1818
1830
1849
1872
1890
1906
1917
1919
1912
1905
1886
1867
1848
1835
1825
1816
1806
1805
1804
1809
1817
1829
1848
1864
1882
1904
1913
1919
1915
1902
1889
1871
1853
1837
1826
1818
1809
1807
1807
1808
1817
1831
1845
1868
1889
1903
1916
1919
1915
1886
1899
1873
1855
1842
1829
1819
1817
1807
1805
1808
1816
1828
1845
1864
1887
1903
1919
1919
1917
1904
1890
1871
1855
1841
1827
1819
1808
1805
1803
1805
1819
1827
1844
1865
1884
1901
1915
1923
1918
1903
1888
1876
1855
1843
1830
1820
1811
1808
1806
1808
1816
1827
1844
1864
1884
1899
1919
1919
1917
1910
1892
1877
1857
1847
1832
1820
1815
1807
1804
1805
1815
1824
1839
1842
1880
1897
1913
1919
1919
1908
1893
1880
1855
1845
1829
1820
1811
1809
1806
1806
1813
1823
1839
1862
1879
1897
1909
1918
1919
1909
1896
1877
1858
1844
1832
1821
1813
1805
1803
1808
1811
1825
1827
1857
1880
1896
1912
1919
1919
1909
1894
1880
1858
1843
1835
1823
1815
1809
1804
1804
1813
1821
1834
1860
1877
1892
1905
1917
1913
1911
1893
1880
1857
1845
1834
1824
1814
1808
1804
1807
1809
1822
1833
1856
1874
1894
1908
1918
1919
1910
1898
1884
1864
1845
1835
1822
1813
1807
1803
1807
1810
1819
1832
1852
1858
1893
1906
1918
1917
1910
1899
1884
1861
1845
1833
1823
1816
1807
1805
1804
1806
1816
1829
1850
1869
1889
1905
1916
1918
1913
1900
1872
1865
1849
1837
END
BEGIN n=1000 fs=1000
1853
1839
1826
1818
1807
1803
1800
1803
1817
1828
1843
1865
1885
1900
1913
1917
1911
1903
1887
1871
1850
1837
1825
1819
1809
1806
1801
1806
1815
1823
1841
1862
1884
1899
1912
1917
1913
1905
1887
1869
1853
1841
1826
1816
1809
1799
1800
1805
1813
1824
1843
1861
1881
1866
1911
1918
1916
1907
1895
1872
1855
1840
1830
1819
1783
1802
1801
1806
1812
1823
1835
1857
1879
1896
1911
1917
1916
1908
1894
1877
1857
1841
1825
1819
1813
1803
1801
1803
1809
1820
1834
1857
1876
1894
1907
1917
1917
1908
1893
1876
1857
1840
1829
1821
1810
1803
1802
1804
1810
1819
1832
1854
1875
1892
1908
1913
1917
1906
1895
1877
1858
1845
1832
1816
1809
1807
1805
1797
1808
1816
1832
1846
1873
1893
1907
1915
1918
1912
1898
1878
1860
1847
1834
1823
1815
1808
1805
1801
1809
1814
1829
1850
1871
1889
1906
1915
1917
1910
1898
1882
1861
1849
1832
1821
1815
1806
1800
1805
1807
1816
1827
1845
1867
1890
1902
1915
1918
1913
1899
1886
1865
1848
1833
1825
1814
1805
1802
1801
1804
1813
1827
1845
1870
1887
1902
1912
1916
1912
1898
1882
1867
1848
1832
1821
1812
1807
1802
1800
1803
1812
1825
1843
1863
1884
1904
1911
1919
1910
1901
1883
1867
1855
1837
1823
1812
1810
1804
1800
1807
1813
1828
1844
1862
1884
1899
1911
1917
1912
1901
1889
1865
1853
1836
1822
1815
1807
1802
1800
1803
1811
1823
1848
1861
1884
1898
1912
1919
1912
1903
1887
1869
1850
1836
1823
1814
1808
1801
1801
1803
1806
1803
1836
1857
1878
1898
1909
1913
1910
1905
1886
1872
1850
1837
1825
1812
1809
1802
1799
1802
1810
1821
1836
1861
1879
1895
1909
1916
1911
1905
1891
1871
1851
1835
1825
1815
1809
1804
1800
1799
1808
1820
1832
1855
1872
1892
1902
1913
1914
1914
1887
1873
1855
1839
1825
1814
1797
1801
1800
1800
1808
1819
1834
1854
1874
1895
1906
1917
1914
1906
1900
1875
1854
1842
1828
1820
1811
1805
1798
1802
1810
1817
1832
1852
1868
1893
1907
1915
1913
1908
1896
1876
1858
1839
1829
1817
1809
1804
1800
1801
1807
1819
1828
1850
1869
1891
1904
1913
1918
1906
1892
1877
1850
1843
1829
1820
1812
1805
1800
1800
1776
1815
1829
1848
1869
1891
1903
1918
1915
1907
1896
1878
1858
1842
1829
1818
1810
1804
1800
1800
1805
1813
1825
1846
1867
1889
1904
1911
1914
1908
1897
1877
1860
1842
1831
1821
1813
1804
1799
1796
1800
1811
1823
1840
1863
1882
1900
1913
1914
1909
1897
1881
1864
1846
1834
1821
1813
1804
1801
1800
1801
1815
1825
1841
1864
1885
1903
1912
1916
1912
1899
1885
1865
1845
1835
1823
1814
1808
1804
1803
1804
1808
1825
1843
1863
1884
1900
1910
1916
1912
1899
1883
1867
1848
1837
1823
1815
1809
1791
1801
1804
1810
1823
1841
1859
1881
1896
1910
1917
1913
1900
1881
1868
1848
1833
1821
1813
1810
1800
1799
1804
1808
1819
1840
1855
1877
1895
1906
1915
1913
1904
1887
1872
1850
1838
1824
1816
1807
1804
1798
1802
1811
1819
1835
1855
1875
1895
1905
1915
1911
1905
1889
1872
1853
1840
1825
1819
1807
1802
1801
1801
1808
1819
1832
1858
1873
1894
1905
1914
1912
1905
1891
1876
1855
1839
1828
1817
1816
1805
1798
1801
1808
1820
1837
1855
1876
1892
1906
1915
1915
1904
1895
1877
1850
1841
1828
1816
1810
1804
1801
1801
1808
1816
1831
1851
1872
1892
1905
1914
1917
1904
1893
1877
1855
1839
1832
1815
1809
1801
1802
1799
1806
1809
1827
1850
1869
1887
1902
1916
1914
1906
1894
1878
1856
1842
1831
1818
1809
1804
1802
1801
1805
1816
1824
1850
1869
1896
1903
1912
1917
1908
1897
1880
1861
1843
1831
1821
1810
1801
1802
1800
1801
1817
1826
1845
1867
1885
1900
1912
1911
1908
1896
1882
1860
1842
1832
1821
1812
1803
1799
1797
1800
1811
1821
1845
1864
1885
1899
1914
1917
1910
1897
1883
1859
1843
1832
1821
1812
1805
1798
1799
1811
1811
1823
1841
1863
1887
1900
1909
1916
1909
1897
1883
1865
1849
1831
1823
1812
1808
1803
1800
1805
1805
1818
1843
1862
1881
1899
1912
1923
1912
1901
1885
1864
1848
1834
1821
1813
1807
1801
1801
1805
1809
1820
1843
1862
1883
1898
1911
1918
1912
1903
1888
1870
1846
1838
1825
1814
1808
1802
1800
1802
1813
1821
1837
1858
1882
1897
1910
1919
1914
1903
1887
1870
1853
1838
1826
1817
1810
1804
1802
1803
1810
1821
1837
1856
1880
1894
1908
1916
1914
1903
1889
1866
1849
1836
1826
1816
1807
1804
1800
1805
1810
1823
1836
1857
1878
1896
1910
1918
1916
1905
1890
1872
1852
1838
1816
1814
1807
1802
1799
1801
1808
1820
1837
1854
1874
1895
1905
1916
1915
1904
1890
1874
1857
1840
1825
1814
1807
1803
1799
1799
1806
1817
1836
1852
1875
1893
1905
1915
1914
1905
1894
1874
1849
1840
1829
1818
1811
1805
1802
1803
1806
1816
1832
1849
1874
1892
1904
1916
1912
1901
1894
1876
1858
1839
1827
1818
1809
1802
1798
1799
1807
1814
1831
1848
1871
1889
1891
1916
1914
1909
1890
1876
1856
1842
1828
1816
1814
1801
1801
1800
1801
1817
1826
1846
1873
1892
1901
1911
1911
1902
1892
1877
1857
1836
1823
1817
1811
1805
1799
1803
1803
1815
1828
1845
1870
1885
1900
1910
1918
1908
1895
1880
1860
1851
1831
1820
1812
1805
1801
1801
1805
1816
1827
1845
1867
1891
1901
1912
1919
1908
1895
1879
1860
1837
1827
1820
1808
1802
1799
1798
1804
1813
1822
1844
1863
1885
1900
1917
1914
1913
1901
1880
1864
1845
1832
1821
1813
1803
1803
1801
1804
1810
1823
1843
1863
1915
1899
1914
1918
1911
1898
1885
1862
1847
1833
1822
1813
1809
1802
1799
1803
1811
1824
1842
1862
1884
1898
1914
1917
END
BEGIN n=1000 fs=1000
1913
1919
1909
1904
1885
1868
1850
1835
1823
1812
1809
1801
1801
1807
1813
1819
1837
1861
1881
1902
1917
1916
1912
1903
1888
1870
1850
1837
1825
1816
1800
1804
1798
1805
1812
1819
1836
1861
1879
1893
1908
1916
1912
1903
1889
1869
1856
1837
1823
1817
1808
1804
1801
1805
1810
1819
1837
1858
1883
1899
1908
1915
1908
1904
1890
1870
1851
1836
1823
1816
1805
1801
1800
1800
1807
1819
1832
1857
1877
1892
1906
1915
1913
1905
1888
1873
1854
1838
1824
1818
1806
1801
1804
1800
1807
1816
1832
1853
1875
1891
1905
1918
1916
1904
1891
1879
1855
1842
1825
1818
1809
1801
1801
1801
1809
1817
1829
1849
1874
1893
1905
1914
1917
1906
1893
1875
1857
1843
1826
1820
1809
1802
1802
1801
1812
1817
1831
1851
1874
1890
1907
1915
1917
1908
1896
1879
1860
1837
1836
1819
1812
1805
1802
1803
1804
1814
1832
1851
1873
1886
1903
1916
1915
1911
1896
1880
1860
1845
1832
1819
1812
1805
1800
1801
1805
1816
1826
1847
1868
1888
1904
1916
1916
1911
1896
1880
1864
1843
1833
1823
1813
1804
1800
1801
1804
1813
1825
1845
1869
1887
1902
1913
1919
1910
1897
1883
1862
1848
1828
1821
1803
1807
1801
1801
1804
1812
1827
1845
1863
1883
1898
1909
1914
1910
1897
1882
1864
1848
1809
1820
1813
1806
1804
1799
1803
1809
1822
1841
1863
1884
1899
1911
1915
1909
1899
1884
1868
1847
1837
1821
1813
1805
1801
1796
1801
1811
1824
1839
1861
1886
1902
1911
1917
1910
1897
1885
1869
1850
1835
1824
1816
1811
1800
1804
1801
1811
1822
1840
1855
1881
1897
1908
1915
1913
1905
1889
1868
1851
1836
1824
1815
1809
1799
1800
1798
1808
1818
1837
1857
1879
1896
1910
1917
1914
1904
1890
1872
1853
1836
1828
1821
1804
1805
1801
1803
1809
1820
1831
1855
1877
1894
1909
1917
1914
1907
1891
1875
1854
1838
1828
1815
1816
1804
1798
1804
1809
1813
1833
1858
1877
1896
1909
1916
1914
1907
1889
1876
1855
1839
1833
1817
1812
1803
1800
1803
1798
1816
1833
1850
1874
1891
1907
1915
1911
1908
1891
1874
1857
1840
1830
1820
1811
1804
1799
1800
1807
1818
1832
1853
1876
1891
1906
1917
1917
1911
1896
1880
1858
1848
1835
1821
1811
1807
1804
1805
1809
1820
1831
1849
1874
1890
1905
1915
1919
1908
1897
1879
1861
1842
1832
1822
1810
1805
1803
1800
1805
1811
1829
1848
1864
1889
1903
1918
1918
1911
1898
1882
1861
1847
1835
1822
1813
1806
1802
1803
1806
1821
1829
1849
1869
1891
1900
1915
1912
1911
1899
1882
1864
1848
1831
1828
1813
1806
1802
1802
1805
1815
1823
1840
1868
1887
1901
1916
1917
1912
1903
1885
1869
1849
1835
1822
1813
1810
1800
1801
1804
1810
1827
1846
1866
1887
1902
1912
1917
1912
1902
1884
1868
1850
1836
1825
1813
1809
1802
1805
1806
1814
1825
1844
1869
1883
1898
1917
1919
1911
1906
1890
1869
1850
1837
1825
1816
1809
1802
1802
1804
1812
1824
1843
1864
1887
1899
1913
1919
1917
1902
1889
1873
1852
1837
1826
1819
1812
1805
1799
1804
1813
1823
1840
1861
1880
1899
1909
1917
1912
1902
1885
1870
1853
1832
1829
1816
1811
1806
1800
1803
1812
1822
1836
1859
1880
1902
1906
1916
1913
1905
1892
1873
1851
1840
1826
1816
1810
1801
1801
1803
1811
1820
1836
1857
1876
1897
1905
1917
1917
1904
1893
1874
1855
1840
1825
1820
1811
1804
1802
1802
1808
1820
1834
1857
1882
1896
1910
1916
1916
1905
1894
1870
1857
1840
1826
1820
1812
1800
1801
1802
1808
1819
1833
1854
1875
1893
1906
1916
1919
1906
1892
1877
1855
1843
1832
1818
1811
1804
1798
1800
1807
1820
1831
1852
1875
1891
1903
1917
1916
1910
1896
1879
1860
1843
1834
1822
1810
1805
1804
1800
1809
1817
1830
1849
1870
1888
1906
1915
1921
1908
1897
1879
1861
1846
1831
1821
1810
1806
1804
1798
1807
1816
1826
1847
1867
1887
1902
1914
1918
1908
1897
1882
1860
1844
1832
1819
1813
1806
1800
1802
1804
1815
1825
1845
1868
1886
1904
1915
1916
1913
1900
1881
1864
1844
1831
1824
1813
1804
1805
1800
1806
1807
1821
1846
1865
1884
1900
1912
1919
1913
1901
1884
1866
1849
1834
1822
1816
1807
1804
1802
1804
1811
1822
1842
1854
1885
1900
1911
1916
1912
1903
1885
1867
1851
1838
1825
1811
1808
1803
1800
1807
1811
1823
1841
1863
1882
1900
1912
1918
1915
1905
1889
1871
1851
1839
1823
1816
1809
1803
1801
1804
1814
1826
1839
1861
1880
1897
1913
1919
1912
1906
1891
1875
1853
1837
1828
1818
1809
1805
1801
1806
1814
1822
1837
1857
1878
1897
1910
1917
1914
1908
1891
1874
1852
1842
1828
1817
1807
1798
1803
1803
1809
1822
1837
1863
1883
1896
1913
1917
1913
1907
1889
1877
1856
1841
1829
1821
1813
1807
1801
1800
1811
1817
1833
1856
1877
1897
1908
1917
1916
1903
1891
1876
1854
1840
1832
1820
1810
1805
1801
1800
1808
1818
1833
1855
1876
1894
1905
1917
1916
1905
1894
1879
1858
1848
1829
1822
1813
1807
1802
1802
1801
1815
1829
1845
1870
1889
1903
1912
1917
1908
1892
1878
1857
1843
1830
1819
1808
1804
1801
1802
1806
1812
1829
1849
1870
1890
1910
1916
1916
1910
1898
1879
1861
1843
1833
1821
1812
1808
1803
1806
1811
1821
1828
1850
1873
1893
1908
1913
1916
1910
1900
1881
1863
1847
1832
1824
1815
1807
1802
1800
1807
1815
1829
1847
1868
1890
1906
1916
1919
1913
1901
1884
1866
1846
1835
1823
1816
1806
1804
1803
1808
1814
1826
1845
1866
1886
1904
1917
1917
1912
1900
1883
1865
1844
1835
1824
1811
1806
1802
1801
1805
1812
1825
1841
1857
1888
1901
1914
1923
1915
1908
1888
1868
1849
1836
1825
1816
1807
1803
1800
1804
1810
1824
END
BEGIN n=1000 fs=1000
1813
1830
1844
1866
1886
1901
1912
1918
1909
1901
1885
1863
1846
1834
1823
1813
1806
1802
1801
1805
1815
1824
1846
1867
1888
1903
1912
1916
1913
1901
1885
1865
1847
1833
1824
1814
1807
1799
1805
1803
1813
1825
1844
1865
1883
1901
1912
1918
1913
1907
1886
1868
1849
1839
1825
1815
1807
1800
1800
1804
1811
1822
1840
1866
1883
1897
1911
1919
1913
1900
1887
1868
1849
1834
1829
1817
1807
1802
1802
1801
1808
1822
1839
1862
1881
1896
1910
1913
1913
1903
1885
1870
1852
1839
1824
1816
1807
1803
1801
1803
1812
1821
1843
1858
1880
1897
1909
1917
1914
1906
1890
1873
1858
1837
1828
1819
1809
1804
1805
1803
1807
1820
1835
1859
1878
1897
1911
1910
1917
1904
1889
1872
1855
1841
1829
1816
1812
1799
1801
1802
1810
1819
1837
1860
1877
1894
1907
1917
1915
1905
1893
1875
1858
1839
1830
1817
1809
1804
1801
1802
1810
1819
1835
1852
1876
1895
1910
1918
1916
1910
1894
1877
1857
1842
1832
1820
1812
1805
1802
1800
1807
1818
1829
1851
1869
1893
1906
1914
1915
1909
1900
1881
1860
1845
1830
1819
1813
1807
1801
1803
1808
1816
1832
1851
1872
1893
1904
1918
1916
1911
1897
1882
1862
1840
1832
1821
1812
1808
1802
1801
1808
1812
1829
1851
1874
1891
1904
1915
1917
1912
1900
1875
1859
1847
1832
1819
1810
1807
1801
1801
1803
1816
1825
1844
1868
1889
1903
1913
1917
1911
1899
1884
1864
1848
1833
1823
1811
1807
1801
1800
1805
1813
1825
1843
1863
1884
1897
1911
1916
1910
1898
1884
1863
1847
1834
1823
1815
1803
1800
1799
1806
1811
1828
1843
1861
1884
1900
1914
1918
1915
1902
1889
1864
1854
1835
1823
1814
1807
1801
1802
1800
1809
1822
1842
1860
1884
1899
1912
1918
1916
1896
1887
1871
1849
1834
1821
1815
1806
1805
1800
1800
1807
1817
1832
1859
1878
1896
1913
1913
1911
1902
1887
1870
1847
1833
1823
1814
1805
1802
1800
1802
1809
1817
1837
1855
1876
1897
1907
1913
1917
1908
1884
1870
1850
1837
1824
1813
1807
1803
1797
1797
1809
1820
1830
1857
1878
1894
1909
1917
1914
1903
1892
1872
1854
1839
1824
1816
1811
1806
1798
1800
1807
1816
1831
1851
1872
1892
1903
1915
1912
1904
1891
1875
1852
1833
1829
1816
1810
1800
1799
1803
1805
1817
1830
1854
1873
1892
1907
1918
1915
1905
1893
1877
1860
1841
1830
1819
1810
1803
1797
1801
1808
1815
1830
1850
1873
1890
1904
1916
1914
1912
1896
1877
1858
1843
1828
1819
1810
1804
1802
1802
1808
1816
1827
1848
1872
1890
1901
1914
1916
1909
1897
1885
1861
1846
1829
1821
1812
1805
1801
1799
1803
1814
1826
1841
1869
1887
1903
1915
1917
1909
1897
1880
1860
1844
1829
1820
1808
1806
1800
1797
1804
1810
1827
1845
1865
1889
1901
1913
1917
1909
1900
1884
1864
1847
1834
1817
1813
1806
1803
1801
1803
1811
1826
1843
1866
1885
1903
1913
1916
1911
1904
1885
1869
1846
1838
1826
1816
1808
1803
1804
1806
1813
1827
1844
1866
1887
1900
1912
1917
1913
1898
1883
1868
1850
1832
1823
1817
1808
1801
1801
1807
1812
1827
1844
1864
1883
1900
1912
1918
1915
1905
1886
1871
1850
1837
1828
1819
1810
1806
1804
1805
1813
1827
1842
1861
1884
1899
1916
1919
1917
1904
1890
1873
1854
1838
1826
1816
1811
1804
1801
1804
1811
1823
1839
1857
1882
1894
1913
1917
1915
1905
1889
1872
1851
1837
1825
1816
1811
1802
1801
1800
1808
1818
1835
1860
1877
1896
1911
1922
1913
1907
1892
1873
1855
1839
1828
1817
1809
1806
1795
1801
1808
1821
1833
1855
1878
1895
1910
1917
1917
1909
1893
1877
1855
1840
1830
1818
1812
1804
1801
1800
1807
1818
1829
1854
1874
1894
1907
1917
1915
1904
1894
1876
1857
1843
1829
1823
1811
1804
1800
1800
1801
1820
1830
1853
1873
1892
1909
1918
1915
1908
1894
1878
1859
1843
1830
1819
1811
1804
1801
1801
1805
1815
1828
1848
1869
1889
1905
1916
1915
1908
1898
1879
1857
1842
1827
1817
1809
1807
1801
1797
1804
1811
1827
1844
1867
1886
1903
1916
1915
1913
1897
1879
1864
1845
1833
1819
1812
1803
1799
1800
1806
1808
1827
1845
1868
1887
1902
1913
1917
1909
1899
1883
1865
1846
1832
1823
1814
1805
1800
1802
1797
1813
1826
1844
1865
1884
1901
1912
1914
1909
1896
1882
1863
1844
1833
1822
1812
1805
1800
1798
1804
1811
1821
1839
1860
1885
1900
1913
1918
1913
1883
1885
1869
1847
1835
1821
1813
1806
1804
1800
1803
1812
1823
1841
1861
1881
1897
1909
1916
1911
1903
1885
1866
1848
1836
1823
1815
1807
1802
1800
1804
1808
1819
1872
1859
1879
1897
1908
1914
1912
1903
1887
1867
1850
1841
1828
1814
1807
1802
1800
1803
1809
1820
1836
1861
1880
1895
1909
1916
1912
1903
1887
1870
1850
1835
1825
1814
1809
1800
1801
1802
1809
1818
1832
1864
1875
1893
1906
1915
1912
1903
1889
1869
1849
1837
1826
1812
1805
1807
1798
1799
1806
1814
1836
1855
1876
1893
1907
1913
1907
1906
1888
1874
1854
1835
1825
1813
1806
1801
1799
1800
1804
1815
1831
1853
1877
1890
1904
1913
1913
1903
1888
1870
1851
1836
1824
1807
1807
1802
1799
1800
1806
1812
1831
1849
1871
1889
1902
1912
1914
1907
1895
1875
1843
1843
1828
1817
1808
1805
1796
1804
1807
1816
1829
1849
1873
1893
1904
1915
1915
1904
1895
1879
1857
1844
1830
1820
1806
1800
1797
1798
1805
1816
1827
1846
1869
1892
1901
1914
1917
1909
1896
1876
1858
1845
1831
1816
1812
1804
1800
1801
1807
1812
1829
1847
1866
1889
1902
1915
1914
1910
1898
1880
1863
1821
1829
1816
1816
1804
1801
1800
1803
1810
1826
1844
1869
1881
1903
1912
1917
1912
1900
1881
1861
1847
1834
1822
1813
END
BEGIN n=1000 fs=1000
1822
1812
1805
1799
1796
1797
1806
1818
1835
1857
1879
1895
1908
1914
1917
1901
1887
1870
1851
1832
1823
1816
1802
1800
1800
1800
1807
1817
1833
1855
1872
1893
1907
1914
1913
1903
1887
1867
1851
1835
1821
1815
1805
1803
1798
1797
1808
1818
1831
1852
1873
1893
1907
1916
1914
1903
1887
1876
1852
1838
1826
1816
1809
1806
1787
1797
1808
1817
1828
1853
1874
1889
1905
1915
1914
1905
1893
1877
1855
1842
1827
1821
1808
1803
1800
1797
1804
1815
1825
1844
1869
1884
1905
1913
1914
1905
1891
1876
1858
1840
1827
1818
1808
1800
1797
1801
1802
1816
1827
1851
1868
1894
1904
1915
1913
1908
1895
1877
1861
1843
1830
1816
1809
1804
1800
1799
1802
1815
1825
1846
1868
1886
1902
1914
1914
1905
1893
1880
1857
1843
1829
1818
1812
1805
1799
1797
1801
1808
1822
1840
1866
1883
1898
1911
1913
1903
1894
1878
1857
1842
1830
1817
1809
1805
1796
1796
1799
1811
1823
1842
1866
1884
1897
1912
1917
1910
1897
1879
1863
1846
1830
1820
1812
1805
1801
1798
1801
1810
1822
1839
1866
1880
1897
1911
1923
1909
1896
1883
1864
1853
1831
1818
1812
1804
1801
1796
1800
1808
1821
1840
1865
1884
1896
1909
1919
1911
1903
1885
1866
1848
1833
1820
1815
1807
1801
1799
1801
1808
1820
1839
1860
1881
1897
1911
1912
1909
1900
1886
1870
1849
1836
1824
1812
1803
1799
1796
1800
1801
1816
1831
1855
1875
1891
1905
1910
1906
1899
1890
1867
1852
1835
1825
1813
1809
1801
1798
1800
1806
1820
1832
1853
1876
1895
1908
1916
1913
1902
1890
1871
1851
1837
1827
1821
1807
1803
1800
1800
1807
1814
1833
1854
1873
1892
1906
1917
1917
1905
1893
1876
1854
1841
1828
1816
1806
1800
1798
1800
1804
1812
1832
1853
1874
1892
1902
1914
1915
1909
1895
1877
1858
1841
1827
1819
1814
1804
1801
1800
1802
1817
1829
1850
1872
1892
1907
1918
1917
1907
1895
1878
1859
1844
1831
1816
1812
1803
1796
1803
1804
1817
1825
1849
1871
1889
1905
1915
1916
1907
1891
1877
1861
1843
1831
1817
1807
1802
1800
1796
1803
1812
1823
1846
1868
1886
1900
1913
1916
1908
1897
1881
1863
1845
1834
1821
1812
1804
1800
1799
1803
1813
1826
1845
1865
1883
1899
1913
1915
1913
1901
1881
1863
1847
1833
1818
1813
1806
1798
1800
1804
1815
1827
1842
1864
1885
1899
1911
1915
1911
1901
1884
1867
1850
1835
1823
1814
1806
1802
1801
1806
1815
1825
1840
1864
1882
1899
1911
1918
1912
1904
1889
1868
1848
1834
1823
1816
1808
1801
1799
1802
1811
1823
1840
1861
1887
1900
1908
1919
1913
1902
1887
1864
1851
1836
1824
1814
1809
1803
1803
1805
1810
1818
1837
1859
1880
1896
1910
1920
1911
1905
1887
1872
1855
1838
1825
1816
1808
1805
1800
1803
1808
1821
1848
1857
1878
1894
1903
1913
1909
1905
1890
1868
1850
1841
1827
1816
1808
1802
1800
1805
1811
1818
1836
1854
1878
1894
1907
1916
1915
1906
1890
1873
1854
1840
1828
1818
1808
1804
1789
1803
1809
1819
1831
1854
1874
1895
1907
1916
1915
1908
1893
1879
1858
1841
1827
1820
1805
1804
1800
1800
1805
1813
1829
1850
1871
1889
1901
1912
1916
1908
1894
1878
1858
1841
1830
1818
1810
1805
1800
1798
1806
1815
1829
1850
1874
1889
1901
1916
1919
1909
1898
1877
1862
1843
1832
1819
1812
1806
1802
1802
1809
1817
1827
1848
1869
1890
1904
1916
1919
1910
1897
1886
1862
1844
1829
1818
1812
1804
1803
1801
1807
1812
1830
1845
1870
1893
1901
1917
1917
1912
1897
1883
1863
1846
1833
1824
1812
1805
1800
1800
1804
1817
1825
1845
1866
1886
1901
1911
1918
1911
1898
1887
1860
1845
1832
1822
1812
1802
1798
1798
1804
1808
1822
1844
1859
1884
1901
1910
1917
1915
1899
1884
1865
1850
1834
1823
1814
1805
1801
1800
1805
1808
1820
1844
1865
1882
1902
1911
1914
1913
1901
1886
1869
1850
1836
1828
1817
1807
1802
1801
1805
1810
1817
1845
1859
1883
1897
1911
1918
1912
1902
1886
1873
1849
1842
1826
1816
1810
1802
1801
1803
1809
1821
1839
1857
1882
1897
1916
1917
1917
1904
1887
1869
1853
1839
1825
1816
1812
1801
1797
1805
1807
1815
1834
1852
1877
1896
1905
1916
1916
1902
1889
1870
1851
1837
1826
1815
1807
1804
1800
1803
1806
1817
1834
1853
1876
1892
1907
1918
1916
1908
1887
1873
1855
1841
1827
1816
1813
1800
1799
1801
1806
1819
1837
1854
1873
1894
1906
1913
1913
1903
1892
1874
1856
1840
1828
1816
1808
1804
1800
1799
1805
1813
1828
1853
1873
1891
1905
1915
1914
1907
1894
1876
1858
1843
1828
1818
1809
1804
1800
1800
1804
1819
1830
1850
1871
1887
1905
1915
1917
1909
1896
1879
1859
1844
1832
1821
1810
1805
1805
1798
1804
1812
1825
1846
1866
1887
1898
1909
1916
1908
1901
1881
1860
1847
1831
1823
1810
1805
1801
1799
1803
1812
1821
1842
1867
1885
1900
1913
1917
1907
1897
1882
1861
1845
1832
1823
1814
1806
1799
1800
1804
1812
1823
1844
1862
1883
1899
1904
1912
1910
1897
1884
1870
1849
1839
1822
1813
1805
1800
1797
1801
1812
1821
1842
1860
1885
1898
1909
1917
1911
1900
1886
1864
1853
1832
1820
1812
1805
1800
1800
1802
1809
1821
1844
1857
1883
1898
1909
1918
1911
1901
1887
1870
1849
1802
1829
1816
1808
1805
1800
1802
1812
1821
1836
1857
1878
1894
1909
1917
1911
1900
1892
1870
1851
1836
1825
1814
1806
1801
1798
1799
1808
1818
1835
1855
1874
1897
1908
1926
1912
1903
1889
1872
1852
1838
1825
1815
1805
1802
1799
1805
1804
1812
1830
1854
1875
1892
1903
1914
1913
1904
1890
1870
1854
1837
1824
1815
1809
1805
1797
1798
1805
1816
1828
1851
1871
1889
1907
1910
1912
1904
END
