BEGIN n=1000 fs=1000
1863
1859
1864
1855
1861
1859
1861
1863
1863
1864
1859
1863
1861
1861
1859
1859
1862
1855
1858
1859
1858
1861
1857
1861
1859
1860
1861
1860
1863
1862
1865
1857
1863
1861
1862
1858
1862
1862
1862
1859
1857
1863
1866
1859
1862
1860
1862
1862
1863
1864
1862
1864
1867
1862
1861
1858
1863
1860
1860
1861
1860
1864
1863
1862
1861
1862
1861
1860
1866
1865
1861
1860
1864
1861
1862
1859
1857
1855
1858
1858
1860
1855
1859
1858
1859
1859
1862
1861
1863
1861
1858
1864
1862
1865
1862
1864
1863
1859
1860
1864
1861
1861
1863
1862
1861
1859
1862
1865
1864
1865
1860
1861
1861
1861
1859
1861
1861
1864
1862
1861
1862
1861
1859
1858
1861
1863
1855
1856
1862
1861
1859
1858
1858
1861
1856
1859
1857
1857
1858
1855
1852
1857
1855
1862
1856
1859
1862
1862
1864
1862
1858
1865
1860
1860
1859
1863
1855
1861
1854
1860
1855
1859
1858
1861
1863
1862
1860
1864
1862
1860
1867
1862
1864
1863
1865
1865
1860
1858
1860
1858
1860
1855
1863
1859
1860
1864
1862
1863
1860
1860
1860
1855
1855
1855
1857
1854
1858
1858
1855
1857
1856
1858
1853
1858
1856
1858
1860
1862
1856
1858
1861
1860
1860
1862
1859
1861
1857
1858
1861
1858
1855
1857
1858
1860
1859
1860
1859
1859
1860
1865
1858
1859
1863
1862
1865
1859
1859
1860
1859
1861
1853
1858
1862
1856
1854
1857
1863
1859
1862
1863
1860
1860
1860
1863
1857
1859
1857
1853
1856
1860
1852
1852
1855
1853
1858
1853
1855
1855
1857
1860
1857
1860
1861
1858
1858
1858
1861
1855
1859
1857
1859
1858
1855
1861
1864
1862
1861
1860
1862
1860
1865
1861
1858
1863
1862
1854
1865
1855
1858
1860
1861
1861
1863
1855
1858
1858
1861
1860
1860
1863
1864
1865
1861
1846
1861
1859
1862
1859
1860
1863
1857
1856
1859
1852
1864
1856
1862
1858
1860
1860
1860
1860
1858
1857
1856
1859
1857
1860
1856
1855
1855
1857
1858
1855
1857
1858
1860
1862
1855
1856
1854
1861
1857
1861
1859
1857
1861
1860
1859
1861
1855
1860
1858
1862
1861
1860
1859
1860
1857
1861
1860
1858
1860
1858
1862
1862
1859
1859
1858
1859
1861
1862
1860
1858
1859
1859
1856
1858
1860
1864
1864
1860
1859
1863
1862
1857
1858
1861
1857
1857
1860
1861
1857
1860
1860
1858
1855
1861
1859
1855
1857
1856
1858
1861
1859
1855
1854
1857
1853
1851
1851
1858
1855
1854
1857
1855
1858
1855
1856
1859
1860
1860
1862
1856
1859
1861
1858
1858
1857
1859
1857
1859
1859
1855
1861
1857
1856
1860
1860
1862
1858
1860
1861
1860
1861
1860
1858
1857
1861
1858
1860
1857
1857
1855
1860
1860
1858
1856
1856
1860
1861
1862
1859
1859
1860
1860
1860
1860
1858
1861
1863
1857
1860
1857
1860
1859
1858
1856
1861
1862
1860
1859
1857
1860
1860
1861
1861
1859
1859
1859
1855
1855
1855
1859
1862
1861
1858
1858
1859
1857
1861
1863
1864
1857
1859
1862
1859
1859
1860
1855
1854
1862
1855
1855
1860
1857
1858
1859
1860
1859
1858
1858
1859
1860
1860
1855
1862
1855
1857
1853
1854
1858
1854
1855
1856
1858
1854
1858
1855
1855
1854
1860
1859
1859
1859
1860
1861
1856
1857
1855
1857
1855
1854
1859
1859
1862
1855
1853
1858
1857
1856
1860
1861
1860
1858
1857
1858
1855
1858
1855
1860
1852
1859
1855
1861
1855
1859
1859
1859
1860
1860
1859
1858
1861
1860
1860
1857
1855
1858
1862
1853
1855
1857
1855
1861
1855
1855
1862
1857
1860
1857
1855
1860
1856
1855
1859
1859
1856
1855
1855
1851
1852
1859
1854
1855
1855
1856
1855
1855
1853
1856
1854
1861
1863
1858
1855
1857
1855
1855
1853
1852
1854
1853
1860
1852
1855
1858
1855
1853
1858
1859
1858
1859
1856
1854
1859
1855
1854
1858
1853
1851
1852
1854
1851
1854
1848
1855
1854
1858
1855
1857
1855
1859
1863
1859
1859
1856
1855
1854
1859
1855
1853
1853
1855
1853
1862
1855
1854
1859
1851
1859
1857
1856
1861
1853
1856
1850
1855
1855
1854
1853
1856
1851
1853
1854
1858
1855
1855
1855
1857
1857
1860
1857
1846
1858
1855
1855
1857
1856
1858
1859
1854
1855
1853
1851
1850
1849
1851
1854
1855
1854
1850
1852
1855
1858
1864
1860
1853
1856
1855
1855
1855
1853
1854
1858
1850
1857
1856
1858
1864
1859
1858
1858
1860
1858
1864
1854
1855
1855
1856
1855
1854
1855
1853
1857
1853
1854
1853
1863
1858
1854
1853
1858
1857
1861
1854
1852
1854
1857
1857
1855
1853
1854
1854
1856
1853
1852
1849
1852
1855
1852
1858
1855
1857
1854
1855
1854
1857
1855
1865
1855
1855
1857
1854
1855
1855
1857
1855
1853
1857
1853
1859
1860
1861
1855
1858
1857
1860
1860
1858
1858
1853
1856
1857
1857
1860
1856
1855
1855
1855
1855
1859
1855
1857
1853
1858
1853
1853
1857
1854
1853
1855
1856
1852
1855
1857
1857
1857
1859
1860
1860
1859
1857
1858
1858
1859
1858
1858
1860
1860
1855
1855
1854
1857
1856
1858
1857
1858
1861
1855
1860
1857
1857
1858
1848
1862
1858
1859
1858
1857
1857
1855
1853
1857
1856
1858
1860
1858
1853
1851
1860
1853
1858
1862
1857
1851
1859
1861
1862
1858
1855
1850
1852
1859
1855
1855
1853
1858
1857
1855
1857
1855
1855
1855
1859
1855
1857
1857
1855
1854
1859
1855
1855
1855
1855
1854
1853
1856
1855
1855
1857
1857
1858
1855
1857
1858
1855
1852
1858
1855
1854
1854
1850
1849
1851
1854
1855
1857
1856
1853
1855
1861
1859
1858
1855
1855
1853
1857
1860
1857
1858
1857
1855
1854
1858
1855
1855
1856
1860
1859
1858
1860
1858
1859
1846
1858
1858
1856
1857
1855
1859
1854
1858
1857
1854
1857
1857
1855
1855
1855
1858
1860
1854
1860
1860
1859
1863
1858
1862
1854
END
BEGIN n=1000 fs=1000
1847
1849
1846
1848
1845
1849
1830
1845
1847
1851
1849
1849
1847
1850
1843
1851
1848
1850
1852
1851
1844
1848
1846
1847
1844
1848
1846
1849
1846
1844
1848
1847
1846
1850
1850
1850
1853
1848
1852
1846
1848
1847
1850
1850
1849
1850
1846
1848
1852
1844
1848
1851
1859
1852
1855
1852
1851
1854
1851
1852
1850
1851
1849
1849
1850
1851
1847
1851
1852
1852
1851
1860
1850
1855
1849
1851
1853
1852
1855
1846
1853
1844
1848
1851
1848
1842
1848
1848
1846
1847
1852
1851
1851
1852
1849
1852
1851
1853
1852
1847
1848
1854
1851
1849
1847
1850
1850
1848
1850
1853
1852
1852
1848
1850
1852
1853
1853
1851
1850
1849
1851
1847
1852
1845
1847
1851
1850
1849
1851
1852
1851
1851
1852
1855
1850
1849
1813
1852
1853
1851
1848
1850
1849
1850
1848
1848
1848
1852
1845
1850
1843
1850
1850
1851
1851
1849
1850
1853
1851
1848
1848
1851
1851
1850
1847
1848
1848
1848
1846
1853
1848
1850
1849
1848
1854
1853
1851
1854
1851
1840
1848
1851
1848
1849
1848
1849
1847
1845
1849
1848
1848
1847
1851
1852
1849
1853
1852
1852
1848
1848
1845
1847
1846
1848
1851
1847
1846
1849
1846
1844
1848
1847
1844
1850
1851
1847
1851
1851
1850
1852
1851
1847
1849
1846
1849
1848
1848
1852
1852
1852
1850
1849
1852
1851
1853
1854
1855
1855
1853
1851
1853
1854
1851
1852
1852
1848
1847
1849
1846
1850
1851
1848
1850
1853
1854
1850
1854
1853
1849
1849
1859
1855
1848
1849
1848
1847
1850
1837
1852
1850
1853
1849
1852
1849
1854
1857
1853
1851
1852
1854
1853
1855
1854
1854
1850
1850
1850
1852
1845
1855
1852
1852
1851
1855
1852
1855
1851
1852
1848
1850
1853
1843
1847
1848
1846
1849
1848
1852
1846
1848
1844
1849
1853
1849
1852
1848
1851
1851
1851
1850
1850
1852
1851
1854
1850
1852
1849
1851
1849
1853
1850
1850
1850
1848
1853
1854
1855
1850
1851
1854
1851
1851
1851
1850
1851
1849
1850
1844
1850
1848
1849
1852
1849
1855
1852
1856
1851
1850
1852
1849
1855
1852
1850
1848
1846
1849
1843
1846
1842
1841
1845
1847
1848
1848
1848
1853
1849
1845
1851
1850
1853
1847
1849
1848
1854
1849
1848
1849
1853
1849
1853
1851
1848
1851
1853
1849
1851
1850
1853
1849
1852
1850
1847
1849
1845
1852
1846
1845
1850
1852
1850
1850
1853
1851
1852
1853
1850
1854
1852
1851
1852
1853
1850
1852
1856
1847
1847
1848
1849
1844
1844
1848
1851
1847
1850
1850
1851
1858
1849
1847
1848
1848
1845
1847
1849
1844
1845
1843
1844
1848
1846
1849
1847
1849
1850
1852
1855
1854
1854
1851
1851
1853
1851
1851
1849
1847
1851
1850
1852
1849
1848
1850
1853
1855
1852
1850
1850
1853
1853
1853
1851
1851
1849
1849
1852
1857
1851
1847
1847
1849
1850
1848
1846
1850
1850
1847
1854
1852
1853
1850
1851
1852
1854
1850
1850
1844
1845
1848
1849
1845
1848
1845
1846
1849
1849
1850
1850
1855
1849
1850
1846
1841
1847
1847
1847
1849
1843
1851
1845
1846
1849
1848
1851
1849
1853
1851
1854
1854
1854
1880
1852
1849
1853
1854
1849
1849
1849
1851
1850
1850
1853
1853
1851
1850
1853
1851
1852
1851
1853
1853
1853
1847
1853
1848
1848
1851
1848
1848
1847
1849
1854
1849
1850
1853
1850
1853
1853
1854
1855
1852
1853
1850
1847
1852
1850
1850
1851
1849
1850
1849
1848
1849
1849
1853
1854
1850
1857
1852
1850
1852
1854
1842
1852
1847
1847
1852
1848
1847
1855
1847
1851
1846
1853
1852
1854
1849
1855
1853
1852
1852
1851
1848
1855
1849
1827
1852
1849
1848
1846
1847
1844
1848
1849
1855
1848
1847
1845
1851
1851
1851
1852
1849
1848
1850
1850
1851
1849
1854
1851
1849
1848
1853
1846
1850
1853
1848
1851
1849
1847
1853
1854
1853
1852
1848
1850
1850
1851
1848
1845
1847
1847
1851
1849
1854
1850
1850
1852
1851
1847
1851
1855
1854
1849
1851
1850
1852
1847
1850
1848
1847
1853
1849
1852
1851
1852
1855
1852
1852
1850
1851
1855
1854
1855
1850
1849
1852
1850
1851
1847
1850
1851
1853
1852
1852
1850
1849
1852
1849
1850
1854
1853
1849
1850
1852
1853
1841
1849
1850
1850
1853
1851
1852
1852
1852
1852
1854
1853
1851
1850
1847
1843
1850
1848
1848
1850
1849
1849
1852
1852
1849
1846
1848
1853
1847
1852
1852
1850
1851
1846
1852
1852
1855
1852
1852
1847
1851
1851
1851
1852
1851
1851
1847
1850
1848
1848
1853
1855
1852
1847
1853
1851
1853
1855
1852
1849
1851
1851
1848
1852
1852
1866
1852
1852
1855
1854
1852
1853
1849
1854
1853
1852
1853
1850
1850
1851
1846
1848
1847
1851
1850
1852
1822
1851
1850
1849
1850
1851
1851
1846
1852
1853
1852
1852
1851
1849
1846
1845
1850
1847
1844
1844
1845
1843
1848
1851
1847
1849
1853
1863
1849
1853
1853
1852
1853
1850
1852
1857
1855
1849
1849
1849
1850
1852
1855
1854
1850
1855
1851
1853
1852
1849
1849
1853
1849
1848
1849
1855
1848
1852
1848
1848
1850
1851
1852
1841
1855
1854
1849
1852
1851
1852
1848
1851
1853
1848
1853
1851
1848
1845
1850
1850
1853
1849
1851
1850
1854
1852
1853
1852
1850
1851
1851
1849
1852
1851
1850
1846
1849
1851
1847
1851
1849
1846
1850
1850
1838
1850
1852
1849
1853
1852
1854
1852
1853
1853
1851
1844
1851
1848
1849
1852
1850
1849
1850
1855
1857
1848
1849
1854
1851
1851
1850
1850
1851
1851
1850
1854
1849
1848
1851
1851
1851
1851
1850
1852
1848
1853
1857
1852
1852
1851
1853
1851
1851
1850
1849
1850
1849
1851
1850
1849
1849
1847
1848
1850
1848
1852
1847
1847
1853
1853
1852
1845
1850
1848
1849
1848
1846
1849
1848
1850
1849
1850
1845
1852
1851
1847
1847
1848
1858
END
BEGIN n=1000 fs=1000
1853
1854
1855
1854
1855
1851
1855
1852
1847
1847
1847
1850
1854
1849
1845
1849
1847
1852
1851
1854
1855
1852
1850
1854
1853
1853
1857
1851
1852
1848
1850
1853
1852
1853
1850
1850
1853
1853
1859
1852
1857
1854
1855
1853
1861
1852
1854
1852
1853
1857
1854
1853
1860
1850
1853
1855
1859
1853
1855
1853
1855
1854
1854
1853
1862
1852
1851
1858
1850
1850
1850
1851
1851
1851
1850
1849
1852
1853
1855
1852
1858
1853
1854
1853
1853
1853
1855
1852
1853
1855
1853
1851
1853
1854
1850
1859
1857
1855
1852
1857
1854
1853
1855
1854
1855
1855
1853
1855
1854
1855
1858
1853
1851
1854
1855
1853
1857
1856
1854
1855
1853
1856
1853
1855
1856
1854
1855
1855
1850
1874
1855
1854
1854
1855
1853
1852
1853
1852
1850
1854
1852
1862
1853
1855
1852
1857
1854
1854
1853
1864
1851
1851
1850
1854
1849
1849
1854
1856
1853
1855
1855
1851
1853
1847
1851
1851
1855
1853
1853
1851
1860
1852
1851
1853
1851
1855
1853
1886
1855
1854
1855
1852
1858
1853
1853
1855
1854
1853
1848
1855
1851
1851
1816
1854
1853
1851
1857
1853
1851
1854
1855
1854
1856
1857
1841
1852
1857
1855
1850
1855
1852
1855
1858
1852
1855
1853
1855
1855
1861
1853
1852
1857
1855
1855
1855
1855
1857
1854
1855
1850
1854
1855
1853
1851
1852
1852
1851
1855
1855
1851
1855
1853
1858
1850
1858
1857
1850
1853
1850
1854
1852
1855
1851
1849
1854
1855
1853
1852
1853
1854
1857
1857
1853
1854
1855
1855
1853
1855
1851
1857
1851
1852
1852
1851
1852
1840
1853
1857
1857
1852
1854
1853
1856
1855
1850
1853
1856
1849
1853
1852
1855
1852
1853
1855
1853
1849
1851
1852
1852
1852
1850
1853
1858
1852
1855
1853
1852
1850
1859
1850
1854
1847
1851
1851
1859
1858
1847
1849
1855
1857
1853
1855
1853
1853
1854
1855
1853
1852
1854
1857
1854
1850
1849
1850
1851
1857
1850
1855
1854
1853
1856
1858
1854
1854
1854
1849
1851
1852
1852
1854
1850
1853
1851
1854
1851
1852
1852
1853
1855
1853
1855
1852
1855
1855
1855
1852
1854
1853
1852
1866
1851
1855
1852
1852
1854
1848
1852
1852
1855
1854
1854
1851
1855
1860
1858
1855
1855
1855
1852
1851
1849
1853
1863
1854
1852
1850
1848
1850
1848
1851
1848
1852
1849
1851
1860
1851
1855
1853
1851
1853
1855
1851
1851
1852
1850
1851
1855
1854
1855
1857
1852
1854
1857
1853
1855
1853
1853
1852
1855
1855
1852
1851
1853
1851
1853
1851
1850
1853
1852
1857
1857
1854
1853
1855
1855
1855
1847
1853
1854
1853
1852
1848
1848
1861
1850
1847
1851
1852
1847
1852
1850
1847
1850
1849
1854
1852
1850
1851
1848
1852
1849
1852
1846
1849
1851
1852
1851
1848
1849
1854
1855
1851
1851
1857
1854
1854
1855
1854
1852
1854
1855
1850
1849
1854
1849
1853
1850
1866
1852
1851
1851
1856
1859
1856
1853
1852
1857
1859
1858
1852
1855
1847
1851
1848
1850
1850
1853
1857
1848
1847
1849
1849
1851
1848
1853
1849
1852
1853
1851
1849
1849
1849
1849
1848
1848
1851
1852
1847
1853
1855
1853
1853
1854
1852
1854
1850
1855
1851
1851
1858
1848
1851
1846
1852
1851
1853
1855
1851
1854
1857
1852
1855
1854
1853
1855
1854
1851
1855
1852
1856
1849
1847
1851
1851
1851
1850
1853
1852
1856
1847
1847
1855
1852
1853
1853
1850
1851
1850
1851
1850
1849
1847
1846
1854
1850
1853
1853
1849
1849
1854
1854
1852
1851
1848
1853
1842
1852
1850
1848
1853
1846
1849
1851
1847
1850
1850
1850
1848
1853
1848
1850
1853
1851
1855
1852
1852
1851
1847
1854
1849
1852
1848
1850
1849
1850
1852
1852
1850
1852
1851
1851
1857
1848
1854
1855
1849
1853
1853
1855
1851
1850
1846
1849
1854
1852
1847
1849
1848
1847
1850
1851
1849
1850
1858
1851
1850
1851
1853
1850
1850
1851
1847
1860
1850
1850
1849
1850
1851
1851
1848
1851
1851
1849
1851
1851
1849
1850
1854
1847
1850
1852
1852
1851
1847
1850
1851
1848
1851
1850
1849
1854
1852
1853
1854
1856
1854
1854
1849
1852
1850
1855
1852
1850
1852
1851
1852
1855
1850
1848
1847
1846
1848
1849
1845
1850
1849
1848
1845
1842
1848
1851
1846
1847
1848
1850
1848
1847
1850
1849
1849
1855
1850
1854
1852
1854
1853
1855
1851
1847
1853
1852
1848
1852
1850
1856
1847
1849
1851
1850
1851
1849
1854
1853
1852
1855
1857
1855
1860
1853
1849
1852
1854
1853
1847
1853
1851
1853
1854
1852
1855
1850
1855
1855
1855
1855
1857
1854
1857
1849
1851
1848
1850
1852
1850
1851
1849
1850
1851
1850
1852
1855
1853
1853
1854
1858
1857
1851
1853
1853
1850
1852
1854
1853
1855
1851
1852
1853
1849
1854
1854
1849
1855
1854
1857
1853
1855
1849
1855
1850
1854
1854
1854
1855
1849
1851
1850
1849
1851
1854
1852
1849
1853
1853
1852
1852
1846
1854
1846
1843
1849
1845
1848
1842
1848
1849
1845
1847
1845
1851
1824
1849
1848
1851
1854
1853
1852
1855
1852
1857
1853
1852
1851
1852
1845
1851
1850
1850
1850
1854
1850
1852
1860
1851
1854
1855
1855
1855
1855
1850
1855
1851
1850
1825
1850
1849
1850
1850
1845
1852
1850
1846
1855
1848
1849
1869
1851
1855
1856
1850
1851
1849
1847
1847
1845
1852
1852
1850
1845
1848
1847
1848
1849
1849
1849
1852
1843
1854
1849
1845
1849
1849
1850
1851
1847
1835
1853
1849
1851
1852
1846
1851
1845
1853
1851
1849
1851
1850
1850
1849
1851
1848
1844
1846
1848
1848
1846
1848
1845
1845
1849
1847
1847
1849
1847
1850
1848
1848
1847
1848
1847
1846
1842
1846
1844
1846
1846
1849
1843
1841
1843
1841
1843
1845
1844
1843
1849
1847
1851
1848
1847
1845
1844
1848
1843
1845
1847
1845
1850
1847
1847
END
BEGIN n=1000 fs=1000
1847
1849
1844
1848
1847
1848
1853
1848
1851
1848
1849
1849
1847
1847
1846
1847
1841
1847
1847
1845
1846
1846
1848
1845
1847
1847
1844
1853
1847
1844
1846
1845
1842
1845
1828
1845
1847
1845
1847
1844
1847
1850
1847
1842
1848
1844
1848
1849
1847
1850
1851
1849
1846
1849
1852
1849
1851
1847
1850
1849
1849
1849
1846
1853
1850
1849
1848
1853
1848
1853
1847
1850
1849
1851
1848
1846
1851
1848
1847
1848
1848
1847
1849
1846
1848
1848
1848
1847
1848
1850
1848
1846
1847
1849
1846
1846
1843
1845
1847
1848
1846
1848
1852
1847
1852
1851
1849
1851
1853
1851
1849
1849
1851
1850
1849
1851
1851
1850
1848
1847
1851
1847
1848
1844
1850
1853
1849
1850
1848
1846
1848
1848
1849
1847
1850
1841
1847
1844
1844
1845
1849
1847
1847
1848
1850
1850
1851
1851
1850
1853
1849
1849
1851
1848
1850
1847
1843
1849
1848
1847
1848
1847
1849
1851
1849
1850
1852
1847
1857
1854
1850
1849
1852
1849
1847
1843
1852
1850
1849
1848
1846
1845
1847
1847
1845
1848
1851
1848
1846
1848
1847
1846
1849
1853
1852
1847
1851
1849
1850
1842
1850
1851
1850
1847
1850
1846
1853
1852
1852
1851
1853
1848
1849
1853
1853
1841
1845
1855
1849
1848
1849
1848
1851
1850
1849
1849
1849
1849
1851
1851
1851
1849
1849
1846
1853
1851
1849
1851
1850
1846
1889
1849
1852
1849
1852
1851
1853
1858
1853
1853
1851
1849
1854
1850
1852
1845
1847
1849
1856
1847
1852
1851
1853
1852
1865
1853
1853
1848
1853
1854
1852
1852
1851
1854
1849
1848
1849
1851
1853
1848
1849
1852
1847
1853
1852
1853
1854
1853
1850
1851
1855
1853
1852
1852
1852
1851
1845
1851
1849
1849
1847
1850
1850
1850
1851
1853
1849
1855
1855
1854
1853
1853
1848
1847
1850
1853
1852
1850
1850
1851
1849
1848
1852
1853
1852
1850
1850
1849
1852
1855
1855
1850
1855
1851
1853
1850
1852
1850
1846
1851
1850
1848
1849
1852
1850
1853
1847
1853
1848
1854
1854
1852
1852
1849
1855
1853
1851
1851
1849
1850
1846
1851
1853
1848
1852
1850
1855
1848
1851
1855
1857
1849
1854
1849
1852
1852
1846
1849
1850
1848
1851
1846
1850
1852
1849
1850
1850
1850
1853
1851
1851
1852
1857
1855
1849
1852
1845
1853
1850
1847
1852
1852
1848
1850
1847
1855
1852
1853
1854
1852
1853
1849
1853
1855
1855
1851
1851
1847
1852
1855
1848
1849
1850
1852
1853
1851
1850
1853
1854
1855
1851
1852
1854
1854
1854
1849
1849
1851
1851
1849
1854
1848
1849
1855
1851
1854
1852
1855
1851
1853
1853
1853
1856
1859
1851
1851
1850
1849
1849
1853
1855
1852
1853
1852
1849
1852
1851
1853
1857
1853
1853
1844
1849
1845
1851
1849
1848
1848
1848
1847
1850
1853
1849
1852
1848
1851
1851
1853
1851
1855
1854
1852
1856
1852
1853
1850
1853
1852
1850
1849
1851
1849
1854
1852
1851
1853
1855
1853
1854
1852
1852
1849
1852
1852
1849
1852
1847
1847
1848
1849
1848
1849
1849
1847
1855
1852
1847
1850
1852
1848
1850
1850
1851
1853
1852
1849
1845
1847
1851
1852
1848
1849
1849
1851
1852
1849
1851
1852
1852
1848
1851
1853
1856
1853
1851
1853
1851
1854
1848
1849
1845
1848
1846
1850
1855
1848
1853
1852
1851
1849
1846
1846
1847
1849
1850
1847
1840
1848
1843
1849
1846
1843
1851
1849
1854
1854
1848
1850
1853
1854
1849
1849
1852
1851
1854
1847
1845
1852
1849
1848
1846
1849
1850
1847
1851
1853
1853
1848
1852
1847
1848
1853
1852
1852
1849
1849
1846
1848
1849
1847
1845
1847
1850
1847
1852
1850
1851
1849
1849
1851
1852
1846
1851
1851
1855
1852
1848
1857
1854
1849
1859
1849
1847
1852
1850
1849
1850
1851
1853
1853
1850
1850
1852
1852
1853
1850
1852
1853
1848
1852
1849
1850
1853
1850
1851
1849
1852
1850
1854
1854
1854
1854
1850
1853
1850
1848
1855
1851
1849
1850
1852
1851
1847
1850
1851
1857
1843
1852
1853
1857
1849
1852
1855
1849
1851
1850
1844
1852
1851
1848
1850
1845
1848
1851
1847
1848
1851
1850
1852
1851
1853
1853
1855
1854
1857
1849
1852
1850
1851
1848
1851
1853
1850
1849
1849
1854
1850
1851
1859
1855
1854
1851
1852
1853
1849
1850
1849
1852
1851
1851
1850
1850
1849
1849
1849
1847
1849
1851
1852
1850
1852
1851
1852
1853
1850
1854
1845
1852
1852
1853
1849
1856
1854
1850
1851
1851
1853
1857
1853
1854
1852
1853
1856
1854
1850
1852
1849
1848
1850
1846
1846
1851
1849
1848
1845
1850
1851
1847
1853
1851
1849
1853
1851
1852
1848
1852
1851
1852
1853
1852
1852
1849
1850
1853
1850
1857
1848
1853
1850
1853
1853
1853
1847
1845
1851
1854
1852
1852
1852
1849
1841
1849
1846
1851
1855
1853
1850
1858
1850
1852
1855
1851
1853
1854
1852
1852
1855
1853
1850
1853
1849
1848
1850
1858
1849
1849
1853
1851
1853
1850
1849
1853
1854
1852
1847
1849
1852
1853
1845
1848
1848
1849
1849
1849
1848
1850
1848
1853
1845
1851
1845
1844
1853
1854
1849
1850
1846
1849
1850
1849
1846
1849
1848
1851
1851
1851
1852
1849
1851
1848
1853
1852
1853
1851
1848
1845
1850
1847
1850
1846
1844
1847
1844
1848
1848
1846
1847
1852
1849
1850
1849
1848
1853
1853
1850
1850
1848
1852
1845
1850
1844
1848
1846
1847
1845
1848
1848
1848
1850
1847
1850
1848
1865
1850
1849
1848
1852
1848
1847
1851
1846
1848
1846
1849
1846
1849
1850
1851
1848
1848
1848
1847
1854
1852
1849
1848
1853
1848
1849
1849
1849
1840
1845
1849
1851
1846
1848
1849
1850
1852
1848
1851
1852
1850
1850
1849
1850
1849
1849
1852
1850
1848
1852
1849
1848
1846
1844
1855
1850
1848
1851
1852
1853
1851
1851
1853
1849
1852
1852
1854
END
